 #  Scattering field.
 #  All quantities in atomic units (a.u.), unless otherwise indicated.
 #  Z =  35, NELEC =  35,   projectile: electron
 #  Kinetic energy = 1.35973E+05 a.u. = 3.70000E+06 eV
 #
 #   i       r           r*V         r*Vst        r*Vex       r*Vpol       r*Wabs        rho_e
 #------------------------------------------------------------------------------------------------
     1  0.00000E+00 -0.00000E+00 -0.00000E+00  0.00000E+00  1.56627-317  0.00000E+00  0.00000E+00
     2  2.06573E-07 -1.14424E-01 -1.14424E-01  0.00000E+00  0.00000E+00  0.00000E+00  0.00000E+00
     3  4.18051E-07 -2.31564E-01 -2.31564E-01  0.00000E+00  0.00000E+00  0.00000E+00  0.00000E+00
     4  6.34545E-07 -3.51480E-01 -3.51480E-01  0.00000E+00  0.00000E+00  0.00000E+00  0.00000E+00
     5  8.56175E-07 -4.74235E-01 -4.74235E-01  0.00000E+00  0.00000E+00  0.00000E+00  0.00000E+00
     6  1.08306E-06 -5.99897E-01 -5.99897E-01  0.00000E+00  0.00000E+00  0.00000E+00  0.00000E+00
     7  1.31533E-06 -7.28531E-01 -7.28531E-01  0.00000E+00  0.00000E+00  0.00000E+00  0.00000E+00
     8  1.55311E-06 -8.60206E-01 -8.60206E-01  0.00000E+00  0.00000E+00  0.00000E+00  0.00000E+00
     9  1.79653E-06 -9.94991E-01 -9.94991E-01  0.00000E+00  0.00000E+00  0.00000E+00  0.00000E+00
    10  2.04572E-06 -1.13296E+00 -1.13296E+00  0.00000E+00  0.00000E+00  0.00000E+00  0.00000E+00
    11  2.30082E-06 -1.27418E+00 -1.27418E+00  0.00000E+00  0.00000E+00  0.00000E+00  0.00000E+00
    12  2.56197E-06 -1.41873E+00 -1.41873E+00  0.00000E+00  0.00000E+00  0.00000E+00  0.00000E+00
    13  2.82932E-06 -1.56668E+00 -1.56668E+00  0.00000E+00  0.00000E+00  0.00000E+00  0.00000E+00
    14  3.10301E-06 -1.71812E+00 -1.71812E+00  0.00000E+00  0.00000E+00  0.00000E+00  0.00000E+00
    15  3.38319E-06 -1.87311E+00 -1.87311E+00  0.00000E+00  0.00000E+00  0.00000E+00  0.00000E+00
    16  3.67002E-06 -2.03174E+00 -2.03174E+00  0.00000E+00  0.00000E+00  0.00000E+00  0.00000E+00
    17  3.96365E-06 -2.19408E+00 -2.19408E+00  0.00000E+00  0.00000E+00  0.00000E+00  0.00000E+00
    18  4.26424E-06 -2.36023E+00 -2.36023E+00  0.00000E+00  0.00000E+00  0.00000E+00  0.00000E+00
    19  4.57197E-06 -2.53027E+00 -2.53027E+00  0.00000E+00  0.00000E+00  0.00000E+00  0.00000E+00
    20  4.88699E-06 -2.70427E+00 -2.70427E+00  0.00000E+00  0.00000E+00  0.00000E+00  0.00000E+00
    21  5.20949E-06 -2.88234E+00 -2.88234E+00  0.00000E+00  0.00000E+00  0.00000E+00  0.00000E+00
    22  5.53964E-06 -3.06455E+00 -3.06455E+00  0.00000E+00  0.00000E+00  0.00000E+00  0.00000E+00
    23  5.87762E-06 -3.25099E+00 -3.25099E+00  0.00000E+00  0.00000E+00  0.00000E+00  0.00000E+00
    24  6.22361E-06 -3.44176E+00 -3.44176E+00  0.00000E+00  0.00000E+00  0.00000E+00  0.00000E+00
    25  6.57781E-06 -3.63694E+00 -3.63694E+00  0.00000E+00  0.00000E+00  0.00000E+00  0.00000E+00
    26  6.94041E-06 -3.83664E+00 -3.83664E+00  0.00000E+00  0.00000E+00  0.00000E+00  0.00000E+00
    27  7.31162E-06 -4.04094E+00 -4.04094E+00  0.00000E+00  0.00000E+00  0.00000E+00  0.00000E+00
    28  7.69163E-06 -4.24994E+00 -4.24994E+00  0.00000E+00  0.00000E+00  0.00000E+00  0.00000E+00
    29  8.08065E-06 -4.46374E+00 -4.46374E+00  0.00000E+00  0.00000E+00  0.00000E+00  0.00000E+00
    30  8.47890E-06 -4.68243E+00 -4.68243E+00  0.00000E+00  0.00000E+00  0.00000E+00  0.00000E+00
    31  8.88660E-06 -4.90611E+00 -4.90611E+00  0.00000E+00  0.00000E+00  0.00000E+00  0.00000E+00
    32  9.30396E-06 -5.13489E+00 -5.13489E+00  0.00000E+00  0.00000E+00  0.00000E+00  0.00000E+00
    33  9.73123E-06 -5.36886E+00 -5.36886E+00  0.00000E+00  0.00000E+00  0.00000E+00  0.00000E+00
    34  1.01686E-05 -5.60812E+00 -5.60812E+00  0.00000E+00  0.00000E+00  0.00000E+00  0.00000E+00
    35  1.06164E-05 -5.85278E+00 -5.85278E+00  0.00000E+00  0.00000E+00  0.00000E+00  0.00000E+00
    36  1.10748E-05 -6.10293E+00 -6.10293E+00  0.00000E+00  0.00000E+00  0.00000E+00  0.00000E+00
    37  1.15441E-05 -6.35868E+00 -6.35868E+00  0.00000E+00  0.00000E+00  0.00000E+00  0.00000E+00
    38  1.20245E-05 -6.62013E+00 -6.62013E+00  0.00000E+00  0.00000E+00  0.00000E+00  0.00000E+00
    39  1.25163E-05 -6.88737E+00 -6.88737E+00  0.00000E+00  0.00000E+00  0.00000E+00  0.00000E+00
    40  1.30197E-05 -7.16052E+00 -7.16052E+00  0.00000E+00  0.00000E+00  0.00000E+00  0.00000E+00
    41  1.35351E-05 -7.43967E+00 -7.43967E+00  0.00000E+00  0.00000E+00  0.00000E+00  0.00000E+00
    42  1.40628E-05 -7.72493E+00 -7.72493E+00  0.00000E+00  0.00000E+00  0.00000E+00  0.00000E+00
    43  1.46029E-05 -8.01638E+00 -8.01638E+00  0.00000E+00  0.00000E+00  0.00000E+00  0.00000E+00
    44  1.51559E-05 -8.31413E+00 -8.31413E+00  0.00000E+00  0.00000E+00  0.00000E+00  0.00000E+00
    45  1.57219E-05 -8.61827E+00 -8.61827E+00  0.00000E+00  0.00000E+00  0.00000E+00  0.00000E+00
    46  1.63014E-05 -8.92890E+00 -8.92890E+00  0.00000E+00  0.00000E+00  0.00000E+00  0.00000E+00
    47  1.68947E-05 -9.24611E+00 -9.24611E+00  0.00000E+00  0.00000E+00  0.00000E+00  0.00000E+00
    48  1.75020E-05 -9.56998E+00 -9.56998E+00  0.00000E+00  0.00000E+00  0.00000E+00  0.00000E+00
    49  1.81237E-05 -9.90060E+00 -9.90060E+00  0.00000E+00  0.00000E+00  0.00000E+00  0.00000E+00
    50  1.87602E-05 -1.02381E+01 -1.02381E+01  0.00000E+00  0.00000E+00  0.00000E+00  0.00000E+00
    51  1.94118E-05 -1.05824E+01 -1.05824E+01  0.00000E+00  0.00000E+00  0.00000E+00  0.00000E+00
    52  2.00788E-05 -1.09337E+01 -1.09337E+01  0.00000E+00  0.00000E+00  0.00000E+00  0.00000E+00
    53  2.07616E-05 -1.12921E+01 -1.12921E+01  0.00000E+00  0.00000E+00  0.00000E+00  0.00000E+00
    54  2.14607E-05 -1.16576E+01 -1.16576E+01  0.00000E+00  0.00000E+00  0.00000E+00  0.00000E+00
    55  2.21763E-05 -1.20302E+01 -1.20302E+01  0.00000E+00  0.00000E+00  0.00000E+00  0.00000E+00
    56  2.29089E-05 -1.24101E+01 -1.24101E+01  0.00000E+00  0.00000E+00  0.00000E+00  0.00000E+00
    57  2.36589E-05 -1.27971E+01 -1.27971E+01  0.00000E+00  0.00000E+00  0.00000E+00  0.00000E+00
    58  2.44266E-05 -1.31915E+01 -1.31915E+01  0.00000E+00  0.00000E+00  0.00000E+00  0.00000E+00
    59  2.52126E-05 -1.35931E+01 -1.35931E+01  0.00000E+00  0.00000E+00  0.00000E+00  0.00000E+00
    60  2.60172E-05 -1.40020E+01 -1.40020E+01  0.00000E+00  0.00000E+00  0.00000E+00  0.00000E+00
    61  2.68409E-05 -1.44181E+01 -1.44181E+01  0.00000E+00  0.00000E+00  0.00000E+00  0.00000E+00
    62  2.76842E-05 -1.48415E+01 -1.48415E+01  0.00000E+00  0.00000E+00  0.00000E+00  0.00000E+00
    63  2.85474E-05 -1.52721E+01 -1.52721E+01  0.00000E+00  0.00000E+00  0.00000E+00  0.00000E+00
    64  2.94311E-05 -1.57099E+01 -1.57099E+01  0.00000E+00  0.00000E+00  0.00000E+00  0.00000E+00
    65  3.03358E-05 -1.61547E+01 -1.61547E+01  0.00000E+00  0.00000E+00  0.00000E+00  0.00000E+00
    66  3.12619E-05 -1.66065E+01 -1.66065E+01  0.00000E+00  0.00000E+00  0.00000E+00  0.00000E+00
    67  3.22100E-05 -1.70651E+01 -1.70651E+01  0.00000E+00  0.00000E+00  0.00000E+00  0.00000E+00
    68  3.31806E-05 -1.75305E+01 -1.75305E+01  0.00000E+00  0.00000E+00  0.00000E+00  0.00000E+00
    69  3.41743E-05 -1.80024E+01 -1.80024E+01  0.00000E+00  0.00000E+00  0.00000E+00  0.00000E+00
    70  3.51914E-05 -1.84806E+01 -1.84806E+01  0.00000E+00  0.00000E+00  0.00000E+00  0.00000E+00
    71  3.62328E-05 -1.89650E+01 -1.89650E+01  0.00000E+00  0.00000E+00  0.00000E+00  0.00000E+00
    72  3.72988E-05 -1.94552E+01 -1.94552E+01  0.00000E+00  0.00000E+00  0.00000E+00  0.00000E+00
    73  3.83901E-05 -1.99509E+01 -1.99509E+01  0.00000E+00  0.00000E+00  0.00000E+00  0.00000E+00
    74  3.95072E-05 -2.04519E+01 -2.04519E+01  0.00000E+00  0.00000E+00  0.00000E+00  0.00000E+00
    75  4.06509E-05 -2.09576E+01 -2.09576E+01  0.00000E+00  0.00000E+00  0.00000E+00  0.00000E+00
    76  4.18217E-05 -2.14678E+01 -2.14678E+01  0.00000E+00  0.00000E+00  0.00000E+00  0.00000E+00
    77  4.30203E-05 -2.19818E+01 -2.19818E+01  0.00000E+00  0.00000E+00  0.00000E+00  0.00000E+00
    78  4.42473E-05 -2.24993E+01 -2.24993E+01  0.00000E+00  0.00000E+00  0.00000E+00  0.00000E+00
    79  4.55034E-05 -2.30195E+01 -2.30195E+01  0.00000E+00  0.00000E+00  0.00000E+00  0.00000E+00
    80  4.67894E-05 -2.35419E+01 -2.35419E+01  0.00000E+00  0.00000E+00  0.00000E+00  0.00000E+00
    81  4.81058E-05 -2.40657E+01 -2.40657E+01  0.00000E+00  0.00000E+00  0.00000E+00  0.00000E+00
    82  4.94534E-05 -2.45901E+01 -2.45901E+01  0.00000E+00  0.00000E+00  0.00000E+00  0.00000E+00
    83  5.08330E-05 -2.51143E+01 -2.51143E+01  0.00000E+00  0.00000E+00  0.00000E+00  0.00000E+00
    84  5.22453E-05 -2.56374E+01 -2.56374E+01  0.00000E+00  0.00000E+00  0.00000E+00  0.00000E+00
    85  5.36912E-05 -2.61582E+01 -2.61582E+01  0.00000E+00  0.00000E+00  0.00000E+00  0.00000E+00
    86  5.51713E-05 -2.66758E+01 -2.66758E+01  0.00000E+00  0.00000E+00  0.00000E+00  0.00000E+00
    87  5.66865E-05 -2.71890E+01 -2.71890E+01  0.00000E+00  0.00000E+00  0.00000E+00  0.00000E+00
    88  5.82377E-05 -2.76965E+01 -2.76965E+01  0.00000E+00  0.00000E+00  0.00000E+00  0.00000E+00
    89  5.98256E-05 -2.81969E+01 -2.81969E+01  0.00000E+00  0.00000E+00  0.00000E+00  0.00000E+00
    90  6.14513E-05 -2.86888E+01 -2.86888E+01  0.00000E+00  0.00000E+00  0.00000E+00  0.00000E+00
    91  6.31155E-05 -2.91706E+01 -2.91706E+01  0.00000E+00  0.00000E+00  0.00000E+00  0.00000E+00
    92  6.48191E-05 -2.96409E+01 -2.96409E+01  0.00000E+00  0.00000E+00  0.00000E+00  0.00000E+00
    93  6.65632E-05 -3.00980E+01 -3.00980E+01  0.00000E+00  0.00000E+00  0.00000E+00  0.00000E+00
    94  6.83486E-05 -3.05402E+01 -3.05402E+01  0.00000E+00  0.00000E+00  0.00000E+00  0.00000E+00
    95  7.01764E-05 -3.09657E+01 -3.09657E+01  0.00000E+00  0.00000E+00  0.00000E+00  0.00000E+00
    96  7.20476E-05 -3.13730E+01 -3.13730E+01  0.00000E+00  0.00000E+00  0.00000E+00  0.00000E+00
    97  7.39631E-05 -3.17603E+01 -3.17603E+01  0.00000E+00  0.00000E+00  0.00000E+00  0.00000E+00
    98  7.59240E-05 -3.21262E+01 -3.21262E+01  0.00000E+00  0.00000E+00  0.00000E+00  0.00000E+00
    99  7.79315E-05 -3.24692E+01 -3.24692E+01  0.00000E+00  0.00000E+00  0.00000E+00  0.00000E+00
   100  7.99866E-05 -3.27883E+01 -3.27883E+01  0.00000E+00  0.00000E+00  0.00000E+00  0.00000E+00
   101  8.20905E-05 -3.30824E+01 -3.30824E+01  0.00000E+00  0.00000E+00  0.00000E+00  0.00000E+00
   102  8.42442E-05 -3.33510E+01 -3.33510E+01  0.00000E+00  0.00000E+00  0.00000E+00  0.00000E+00
   103  8.64490E-05 -3.35939E+01 -3.35939E+01  0.00000E+00  0.00000E+00  0.00000E+00  0.00000E+00
   104  8.87061E-05 -3.38113E+01 -3.38113E+01  0.00000E+00  0.00000E+00  0.00000E+00  0.00000E+00
   105  9.10168E-05 -3.40037E+01 -3.40037E+01  0.00000E+00  0.00000E+00  0.00000E+00  0.00000E+00
   106  9.33823E-05 -3.41722E+01 -3.41722E+01  0.00000E+00  0.00000E+00  0.00000E+00  0.00000E+00
   107  9.58039E-05 -3.43181E+01 -3.43181E+01  0.00000E+00  0.00000E+00  0.00000E+00  0.00000E+00
   108  9.82829E-05 -3.44430E+01 -3.44430E+01  0.00000E+00  0.00000E+00  0.00000E+00  0.00000E+00
   109  1.00821E-04 -3.45489E+01 -3.45489E+01  0.00000E+00  0.00000E+00  0.00000E+00  0.00000E+00
   110  1.03419E-04 -3.46376E+01 -3.46376E+01  0.00000E+00  0.00000E+00  0.00000E+00  0.00000E+00
   111  1.06078E-04 -3.47112E+01 -3.47112E+01  0.00000E+00  0.00000E+00  0.00000E+00  0.00000E+00
   112  1.08801E-04 -3.47716E+01 -3.47716E+01  0.00000E+00  0.00000E+00  0.00000E+00  0.00000E+00
   113  1.11588E-04 -3.48208E+01 -3.48208E+01  0.00000E+00  0.00000E+00  0.00000E+00  0.00000E+00
   114  1.14442E-04 -3.48605E+01 -3.48605E+01  0.00000E+00  0.00000E+00  0.00000E+00  0.00000E+00
   115  1.17363E-04 -3.48922E+01 -3.48922E+01  0.00000E+00  0.00000E+00  0.00000E+00  0.00000E+00
   116  1.20353E-04 -3.49173E+01 -3.49173E+01  0.00000E+00  0.00000E+00  0.00000E+00  0.00000E+00
   117  1.23415E-04 -3.49371E+01 -3.49371E+01  0.00000E+00  0.00000E+00  0.00000E+00  0.00000E+00
   118  1.26549E-04 -3.49525E+01 -3.49525E+01  0.00000E+00  0.00000E+00  0.00000E+00  0.00000E+00
   119  1.29757E-04 -3.49644E+01 -3.49644E+01  0.00000E+00  0.00000E+00  0.00000E+00  0.00000E+00
   120  1.33041E-04 -3.49735E+01 -3.49735E+01  0.00000E+00  0.00000E+00  0.00000E+00  0.00000E+00
   121  1.36403E-04 -3.49804E+01 -3.49804E+01  0.00000E+00  0.00000E+00  0.00000E+00  0.00000E+00
   122  1.39845E-04 -3.49857E+01 -3.49857E+01  0.00000E+00  0.00000E+00  0.00000E+00  0.00000E+00
   123  1.43369E-04 -3.49896E+01 -3.49896E+01  0.00000E+00  0.00000E+00  0.00000E+00  0.00000E+00
   124  1.46976E-04 -3.49925E+01 -3.49925E+01  0.00000E+00  0.00000E+00  0.00000E+00  0.00000E+00
   125  1.50669E-04 -3.49946E+01 -3.49946E+01  0.00000E+00  0.00000E+00  0.00000E+00  0.00000E+00
   126  1.54450E-04 -3.49962E+01 -3.49962E+01  0.00000E+00  0.00000E+00  0.00000E+00  0.00000E+00
   127  1.58320E-04 -3.49973E+01 -3.49973E+01  0.00000E+00  0.00000E+00  0.00000E+00  0.00000E+00
   128  1.62281E-04 -3.49981E+01 -3.49981E+01  0.00000E+00  0.00000E+00  0.00000E+00  0.00000E+00
   129  1.66337E-04 -3.49987E+01 -3.49987E+01  0.00000E+00  0.00000E+00  0.00000E+00  0.00000E+00
   130  1.70489E-04 -3.49991E+01 -3.49991E+01  0.00000E+00  0.00000E+00  0.00000E+00  0.00000E+00
   131  1.74740E-04 -3.49994E+01 -3.49994E+01  0.00000E+00  0.00000E+00  0.00000E+00  0.00000E+00
   132  1.79091E-04 -3.49996E+01 -3.49996E+01  0.00000E+00  0.00000E+00  0.00000E+00  0.00000E+00
   133  1.83546E-04 -3.49997E+01 -3.49997E+01  0.00000E+00  0.00000E+00  0.00000E+00  0.00000E+00
   134  1.88106E-04 -3.49998E+01 -3.49998E+01  0.00000E+00  0.00000E+00  0.00000E+00  0.00000E+00
   135  1.92774E-04 -3.49999E+01 -3.49999E+01  0.00000E+00  0.00000E+00  0.00000E+00  0.00000E+00
   136  1.97553E-04 -3.49999E+01 -3.49999E+01  0.00000E+00  0.00000E+00  0.00000E+00  0.00000E+00
   137  2.02446E-04 -3.50000E+01 -3.50000E+01  0.00000E+00  0.00000E+00  0.00000E+00  0.00000E+00
   138  2.07454E-04 -3.50000E+01 -3.50000E+01  0.00000E+00  0.00000E+00  0.00000E+00  0.00000E+00
   139  2.12582E-04 -3.50000E+01 -3.50000E+01  0.00000E+00  0.00000E+00  0.00000E+00  0.00000E+00
   140  2.17830E-04 -3.50000E+01 -3.50000E+01  0.00000E+00  0.00000E+00  0.00000E+00  0.00000E+00
   141  2.23204E-04 -3.50000E+01 -3.50000E+01  0.00000E+00  0.00000E+00  0.00000E+00  0.00000E+00
   142  2.28705E-04 -3.50000E+01 -3.50000E+01  0.00000E+00  0.00000E+00  0.00000E+00  0.00000E+00
   143  2.34336E-04 -3.50000E+01 -3.50000E+01  0.00000E+00  0.00000E+00  0.00000E+00  0.00000E+00
   144  2.40101E-04 -3.50000E+01 -3.50000E+01  0.00000E+00  0.00000E+00  0.00000E+00  0.00000E+00
   145  2.46003E-04 -3.50000E+01 -3.50000E+01  0.00000E+00  0.00000E+00  0.00000E+00  0.00000E+00
   146  2.52044E-04 -3.50000E+01 -3.50000E+01  0.00000E+00  0.00000E+00  0.00000E+00  0.00000E+00
   147  2.58229E-04 -3.50000E+01 -3.50000E+01  0.00000E+00  0.00000E+00  0.00000E+00  0.00000E+00
   148  2.64561E-04 -3.50000E+01 -3.50000E+01  0.00000E+00  0.00000E+00  0.00000E+00  0.00000E+00
   149  2.71043E-04 -3.50000E+01 -3.50000E+01  0.00000E+00  0.00000E+00  0.00000E+00  0.00000E+00
   150  2.77678E-04 -3.50000E+01 -3.50000E+01  0.00000E+00  0.00000E+00  0.00000E+00  0.00000E+00
   151  2.84471E-04 -3.50000E+01 -3.50000E+01  0.00000E+00  0.00000E+00  0.00000E+00  0.00000E+00
   152  2.91425E-04 -3.50000E+01 -3.50000E+01  0.00000E+00  0.00000E+00  0.00000E+00  0.00000E+00
   153  2.98544E-04 -3.50000E+01 -3.50000E+01  0.00000E+00  0.00000E+00  0.00000E+00  0.00000E+00
   154  3.05832E-04 -3.50000E+01 -3.50000E+01  0.00000E+00  0.00000E+00  0.00000E+00  0.00000E+00
   155  3.13293E-04 -3.50000E+01 -3.50000E+01  0.00000E+00  0.00000E+00  0.00000E+00  0.00000E+00
   156  3.20930E-04 -3.50000E+01 -3.50000E+01  0.00000E+00  0.00000E+00  0.00000E+00  0.00000E+00
   157  3.28749E-04 -3.50000E+01 -3.50000E+01  0.00000E+00  0.00000E+00  0.00000E+00  0.00000E+00
   158  3.36753E-04 -3.50000E+01 -3.50000E+01  0.00000E+00  0.00000E+00  0.00000E+00  0.00000E+00
   159  3.44948E-04 -3.50000E+01 -3.50000E+01  0.00000E+00  0.00000E+00  0.00000E+00  0.00000E+00
   160  3.53336E-04 -3.50000E+01 -3.50000E+01  0.00000E+00  0.00000E+00  0.00000E+00  0.00000E+00
   161  3.61923E-04 -3.50000E+01 -3.50000E+01  0.00000E+00  0.00000E+00  0.00000E+00  0.00000E+00
   162  3.70715E-04 -3.50000E+01 -3.50000E+01  0.00000E+00  0.00000E+00  0.00000E+00  0.00000E+00
   163  3.79714E-04 -3.50000E+01 -3.50000E+01  0.00000E+00  0.00000E+00  0.00000E+00  0.00000E+00
   164  3.79714E-04 -3.50000E+01 -3.50000E+01  0.00000E+00  0.00000E+00  0.00000E+00  0.00000E+00
   165  7.59429E-04 -3.50000E+01 -3.50000E+01  0.00000E+00  0.00000E+00  0.00000E+00  0.00000E+00
   166  1.51886E-03 -3.50000E+01 -3.50000E+01  0.00000E+00  0.00000E+00  0.00000E+00  0.00000E+00
   167  3.03771E-03 -3.50000E+01 -3.50000E+01  0.00000E+00  0.00000E+00  0.00000E+00  0.00000E+00
   168  6.07543E-03 -3.50000E+01 -3.50000E+01  0.00000E+00  0.00000E+00  0.00000E+00  0.00000E+00
   169  1.21509E-02 -3.50000E+01 -3.50000E+01  0.00000E+00  0.00000E+00  0.00000E+00  0.00000E+00
   170  2.43017E-02 -3.50000E+01 -3.50000E+01  0.00000E+00  0.00000E+00  0.00000E+00  0.00000E+00
   171  4.86034E-02 -3.50000E+01 -3.50000E+01  0.00000E+00  0.00000E+00  0.00000E+00  0.00000E+00
   172  9.72069E-02 -3.50000E+01 -3.50000E+01  0.00000E+00  0.00000E+00  0.00000E+00  0.00000E+00
   173  1.94414E-01 -3.50000E+01 -3.50000E+01  0.00000E+00  0.00000E+00  0.00000E+00  0.00000E+00
   174  3.88827E-01 -3.50000E+01 -3.50000E+01  0.00000E+00  0.00000E+00  0.00000E+00  0.00000E+00
   175  7.77655E-01 -3.50000E+01 -3.50000E+01  0.00000E+00  0.00000E+00  0.00000E+00  0.00000E+00
   176  1.55531E+00 -3.50000E+01 -3.50000E+01  0.00000E+00  0.00000E+00  0.00000E+00  0.00000E+00
   177  3.11062E+00 -3.50000E+01 -3.50000E+01  0.00000E+00  0.00000E+00  0.00000E+00  0.00000E+00
   178  6.22124E+00 -3.50000E+01 -3.50000E+01  0.00000E+00  0.00000E+00  0.00000E+00  0.00000E+00
   179  1.24425E+01 -3.50000E+01 -3.50000E+01  0.00000E+00  0.00000E+00  0.00000E+00  0.00000E+00
   180  2.48850E+01 -3.50000E+01 -3.50000E+01  0.00000E+00  0.00000E+00  0.00000E+00  0.00000E+00
   181  4.97699E+01 -3.50000E+01 -3.50000E+01  0.00000E+00  0.00000E+00  0.00000E+00  0.00000E+00
   182  9.95398E+01 -3.50000E+01 -3.50000E+01  0.00000E+00  0.00000E+00  0.00000E+00  0.00000E+00
   183  1.99080E+02 -3.50000E+01 -3.50000E+01  0.00000E+00  0.00000E+00  0.00000E+00  0.00000E+00
   184  3.98159E+02 -3.50000E+01 -3.50000E+01  0.00000E+00  0.00000E+00  0.00000E+00  0.00000E+00
   185  7.96319E+02 -3.50000E+01 -3.50000E+01  0.00000E+00  0.00000E+00  0.00000E+00  0.00000E+00
   186  1.59264E+03 -3.50000E+01 -3.50000E+01  0.00000E+00  0.00000E+00  0.00000E+00  0.00000E+00
   187  3.18527E+03 -3.50000E+01 -3.50000E+01  0.00000E+00  0.00000E+00  0.00000E+00  0.00000E+00
   188  6.37055E+03 -3.50000E+01 -3.50000E+01  0.00000E+00  0.00000E+00  0.00000E+00  0.00000E+00
   189  1.27411E+04 -3.50000E+01 -3.50000E+01  0.00000E+00  0.00000E+00  0.00000E+00  0.00000E+00
