 #  Scattering field.
 #  All quantities in atomic units (a.u.), unless otherwise indicated.
 #  Z =   6, NELEC =   6,   projectile: electron
 #  Kinetic energy = 1.35973E+05 a.u. = 3.70000E+06 eV
 #
 #   i       r           r*V         r*Vst        r*Vex       r*Vpol       r*Wabs        rho_e
 #------------------------------------------------------------------------------------------------
     1  0.00000E+00  0.00000E+00  0.00000E+00  0.00000E+00  0.00000E+00  0.00000E+00  0.00000E+00
     2  1.15865E-07 -1.75565E-02 -1.75565E-02  0.00000E+00  0.00000E+00  0.00000E+00  0.00000E+00
     3  2.34630E-07 -3.55523E-02 -3.55523E-02  0.00000E+00  0.00000E+00  0.00000E+00  0.00000E+00
     4  3.56368E-07 -5.39981E-02 -5.39981E-02  0.00000E+00  0.00000E+00  0.00000E+00  0.00000E+00
     5  4.81151E-07 -7.29047E-02 -7.29047E-02  0.00000E+00  0.00000E+00  0.00000E+00  0.00000E+00
     6  6.09057E-07 -9.22834E-02 -9.22834E-02  0.00000E+00  0.00000E+00  0.00000E+00  0.00000E+00
     7  7.40163E-07 -1.12146E-01 -1.12146E-01  0.00000E+00  0.00000E+00  0.00000E+00  0.00000E+00
     8  8.74550E-07 -1.32504E-01 -1.32504E-01  0.00000E+00  0.00000E+00  0.00000E+00  0.00000E+00
     9  1.01230E-06 -1.53369E-01 -1.53369E-01  0.00000E+00  0.00000E+00  0.00000E+00  0.00000E+00
    10  1.15350E-06 -1.74754E-01 -1.74754E-01  0.00000E+00  0.00000E+00  0.00000E+00  0.00000E+00
    11  1.29822E-06 -1.96671E-01 -1.96671E-01  0.00000E+00  0.00000E+00  0.00000E+00  0.00000E+00
    12  1.44658E-06 -2.19133E-01 -2.19133E-01  0.00000E+00  0.00000E+00  0.00000E+00  0.00000E+00
    13  1.59864E-06 -2.42153E-01 -2.42153E-01  0.00000E+00  0.00000E+00  0.00000E+00  0.00000E+00
    14  1.75450E-06 -2.65745E-01 -2.65745E-01  0.00000E+00  0.00000E+00  0.00000E+00  0.00000E+00
    15  1.91427E-06 -2.89921E-01 -2.89921E-01  0.00000E+00  0.00000E+00  0.00000E+00  0.00000E+00
    16  2.07804E-06 -3.14697E-01 -3.14697E-01  0.00000E+00  0.00000E+00  0.00000E+00  0.00000E+00
    17  2.24590E-06 -3.40085E-01 -3.40085E-01  0.00000E+00  0.00000E+00  0.00000E+00  0.00000E+00
    18  2.41796E-06 -3.66101E-01 -3.66101E-01  0.00000E+00  0.00000E+00  0.00000E+00  0.00000E+00
    19  2.59433E-06 -3.92759E-01 -3.92759E-01  0.00000E+00  0.00000E+00  0.00000E+00  0.00000E+00
    20  2.77511E-06 -4.20074E-01 -4.20074E-01  0.00000E+00  0.00000E+00  0.00000E+00  0.00000E+00
    21  2.96042E-06 -4.48061E-01 -4.48061E-01  0.00000E+00  0.00000E+00  0.00000E+00  0.00000E+00
    22  3.15036E-06 -4.76736E-01 -4.76736E-01  0.00000E+00  0.00000E+00  0.00000E+00  0.00000E+00
    23  3.34505E-06 -5.06114E-01 -5.06114E-01  0.00000E+00  0.00000E+00  0.00000E+00  0.00000E+00
    24  3.54462E-06 -5.36211E-01 -5.36211E-01  0.00000E+00  0.00000E+00  0.00000E+00  0.00000E+00
    25  3.74918E-06 -5.67044E-01 -5.67044E-01  0.00000E+00  0.00000E+00  0.00000E+00  0.00000E+00
    26  3.95886E-06 -5.98629E-01 -5.98629E-01  0.00000E+00  0.00000E+00  0.00000E+00  0.00000E+00
    27  4.17378E-06 -6.30982E-01 -6.30982E-01  0.00000E+00  0.00000E+00  0.00000E+00  0.00000E+00
    28  4.39408E-06 -6.64122E-01 -6.64122E-01  0.00000E+00  0.00000E+00  0.00000E+00  0.00000E+00
    29  4.61990E-06 -6.98064E-01 -6.98064E-01  0.00000E+00  0.00000E+00  0.00000E+00  0.00000E+00
    30  4.85136E-06 -7.32826E-01 -7.32826E-01  0.00000E+00  0.00000E+00  0.00000E+00  0.00000E+00
    31  5.08862E-06 -7.68425E-01 -7.68425E-01  0.00000E+00  0.00000E+00  0.00000E+00  0.00000E+00
    32  5.33181E-06 -8.04880E-01 -8.04880E-01  0.00000E+00  0.00000E+00  0.00000E+00  0.00000E+00
    33  5.58109E-06 -8.42208E-01 -8.42208E-01  0.00000E+00  0.00000E+00  0.00000E+00  0.00000E+00
    34  5.83661E-06 -8.80427E-01 -8.80427E-01  0.00000E+00  0.00000E+00  0.00000E+00  0.00000E+00
    35  6.09851E-06 -9.19555E-01 -9.19555E-01  0.00000E+00  0.00000E+00  0.00000E+00  0.00000E+00
    36  6.36698E-06 -9.59610E-01 -9.59610E-01  0.00000E+00  0.00000E+00  0.00000E+00  0.00000E+00
    37  6.64216E-06 -1.00061E+00 -1.00061E+00  0.00000E+00  0.00000E+00  0.00000E+00  0.00000E+00
    38  6.92422E-06 -1.04258E+00 -1.04258E+00  0.00000E+00  0.00000E+00  0.00000E+00  0.00000E+00
    39  7.21335E-06 -1.08552E+00 -1.08552E+00  0.00000E+00  0.00000E+00  0.00000E+00  0.00000E+00
    40  7.50970E-06 -1.12947E+00 -1.12947E+00  0.00000E+00  0.00000E+00  0.00000E+00  0.00000E+00
    41  7.81348E-06 -1.17443E+00 -1.17443E+00  0.00000E+00  0.00000E+00  0.00000E+00  0.00000E+00
    42  8.12485E-06 -1.22044E+00 -1.22044E+00  0.00000E+00  0.00000E+00  0.00000E+00  0.00000E+00
    43  8.44401E-06 -1.26749E+00 -1.26749E+00  0.00000E+00  0.00000E+00  0.00000E+00  0.00000E+00
    44  8.77117E-06 -1.31562E+00 -1.31562E+00  0.00000E+00  0.00000E+00  0.00000E+00  0.00000E+00
    45  9.10650E-06 -1.36483E+00 -1.36483E+00  0.00000E+00  0.00000E+00  0.00000E+00  0.00000E+00
    46  9.45023E-06 -1.41515E+00 -1.41515E+00  0.00000E+00  0.00000E+00  0.00000E+00  0.00000E+00
    47  9.80256E-06 -1.46660E+00 -1.46660E+00  0.00000E+00  0.00000E+00  0.00000E+00  0.00000E+00
    48  1.01637E-05 -1.51918E+00 -1.51918E+00  0.00000E+00  0.00000E+00  0.00000E+00  0.00000E+00
    49  1.05339E-05 -1.57291E+00 -1.57291E+00  0.00000E+00  0.00000E+00  0.00000E+00  0.00000E+00
    50  1.09133E-05 -1.62781E+00 -1.62781E+00  0.00000E+00  0.00000E+00  0.00000E+00  0.00000E+00
    51  1.13023E-05 -1.68390E+00 -1.68390E+00  0.00000E+00  0.00000E+00  0.00000E+00  0.00000E+00
    52  1.17009E-05 -1.74118E+00 -1.74118E+00  0.00000E+00  0.00000E+00  0.00000E+00  0.00000E+00
    53  1.21096E-05 -1.79966E+00 -1.79966E+00  0.00000E+00  0.00000E+00  0.00000E+00  0.00000E+00
    54  1.25284E-05 -1.85936E+00 -1.85936E+00  0.00000E+00  0.00000E+00  0.00000E+00  0.00000E+00
    55  1.29578E-05 -1.92029E+00 -1.92029E+00  0.00000E+00  0.00000E+00  0.00000E+00  0.00000E+00
    56  1.33979E-05 -1.98245E+00 -1.98245E+00  0.00000E+00  0.00000E+00  0.00000E+00  0.00000E+00
    57  1.38490E-05 -2.04586E+00 -2.04586E+00  0.00000E+00  0.00000E+00  0.00000E+00  0.00000E+00
    58  1.43114E-05 -2.11051E+00 -2.11051E+00  0.00000E+00  0.00000E+00  0.00000E+00  0.00000E+00
    59  1.47854E-05 -2.17640E+00 -2.17640E+00  0.00000E+00  0.00000E+00  0.00000E+00  0.00000E+00
    60  1.52712E-05 -2.24355E+00 -2.24355E+00  0.00000E+00  0.00000E+00  0.00000E+00  0.00000E+00
    61  1.57692E-05 -2.31194E+00 -2.31194E+00  0.00000E+00  0.00000E+00  0.00000E+00  0.00000E+00
    62  1.62796E-05 -2.38157E+00 -2.38157E+00  0.00000E+00  0.00000E+00  0.00000E+00  0.00000E+00
    63  1.68028E-05 -2.45244E+00 -2.45244E+00  0.00000E+00  0.00000E+00  0.00000E+00  0.00000E+00
    64  1.73391E-05 -2.52453E+00 -2.52453E+00  0.00000E+00  0.00000E+00  0.00000E+00  0.00000E+00
    65  1.78888E-05 -2.59784E+00 -2.59784E+00  0.00000E+00  0.00000E+00  0.00000E+00  0.00000E+00
    66  1.84523E-05 -2.67233E+00 -2.67233E+00  0.00000E+00  0.00000E+00  0.00000E+00  0.00000E+00
    67  1.90299E-05 -2.74800E+00 -2.74800E+00  0.00000E+00  0.00000E+00  0.00000E+00  0.00000E+00
    68  1.96219E-05 -2.82481E+00 -2.82481E+00  0.00000E+00  0.00000E+00  0.00000E+00  0.00000E+00
    69  2.02288E-05 -2.90273E+00 -2.90273E+00  0.00000E+00  0.00000E+00  0.00000E+00  0.00000E+00
    70  2.08508E-05 -2.98174E+00 -2.98174E+00  0.00000E+00  0.00000E+00  0.00000E+00  0.00000E+00
    71  2.14884E-05 -3.06178E+00 -3.06178E+00  0.00000E+00  0.00000E+00  0.00000E+00  0.00000E+00
    72  2.21419E-05 -3.14282E+00 -3.14282E+00  0.00000E+00  0.00000E+00  0.00000E+00  0.00000E+00
    73  2.28118E-05 -3.22479E+00 -3.22479E+00  0.00000E+00  0.00000E+00  0.00000E+00  0.00000E+00
    74  2.34985E-05 -3.30764E+00 -3.30764E+00  0.00000E+00  0.00000E+00  0.00000E+00  0.00000E+00
    75  2.42023E-05 -3.39131E+00 -3.39131E+00  0.00000E+00  0.00000E+00  0.00000E+00  0.00000E+00
    76  2.49238E-05 -3.47571E+00 -3.47571E+00  0.00000E+00  0.00000E+00  0.00000E+00  0.00000E+00
    77  2.56633E-05 -3.56077E+00 -3.56077E+00  0.00000E+00  0.00000E+00  0.00000E+00  0.00000E+00
    78  2.64213E-05 -3.64640E+00 -3.64640E+00  0.00000E+00  0.00000E+00  0.00000E+00  0.00000E+00
    79  2.71982E-05 -3.73250E+00 -3.73250E+00  0.00000E+00  0.00000E+00  0.00000E+00  0.00000E+00
    80  2.79947E-05 -3.81896E+00 -3.81896E+00  0.00000E+00  0.00000E+00  0.00000E+00  0.00000E+00
    81  2.88110E-05 -3.90567E+00 -3.90567E+00  0.00000E+00  0.00000E+00  0.00000E+00  0.00000E+00
    82  2.96478E-05 -3.99251E+00 -3.99251E+00  0.00000E+00  0.00000E+00  0.00000E+00  0.00000E+00
    83  3.05055E-05 -4.07933E+00 -4.07933E+00  0.00000E+00  0.00000E+00  0.00000E+00  0.00000E+00
    84  3.13846E-05 -4.16599E+00 -4.16599E+00  0.00000E+00  0.00000E+00  0.00000E+00  0.00000E+00
    85  3.22858E-05 -4.25234E+00 -4.25234E+00  0.00000E+00  0.00000E+00  0.00000E+00  0.00000E+00
    86  3.32095E-05 -4.33823E+00 -4.33823E+00  0.00000E+00  0.00000E+00  0.00000E+00  0.00000E+00
    87  3.41564E-05 -4.42347E+00 -4.42347E+00  0.00000E+00  0.00000E+00  0.00000E+00  0.00000E+00
    88  3.51269E-05 -4.50789E+00 -4.50789E+00  0.00000E+00  0.00000E+00  0.00000E+00  0.00000E+00
    89  3.61217E-05 -4.59130E+00 -4.59130E+00  0.00000E+00  0.00000E+00  0.00000E+00  0.00000E+00
    90  3.71414E-05 -4.67351E+00 -4.67351E+00  0.00000E+00  0.00000E+00  0.00000E+00  0.00000E+00
    91  3.81866E-05 -4.75433E+00 -4.75433E+00  0.00000E+00  0.00000E+00  0.00000E+00  0.00000E+00
    92  3.92579E-05 -4.83355E+00 -4.83355E+00  0.00000E+00  0.00000E+00  0.00000E+00  0.00000E+00
    93  4.03561E-05 -4.91098E+00 -4.91098E+00  0.00000E+00  0.00000E+00  0.00000E+00  0.00000E+00
    94  4.14818E-05 -4.98641E+00 -4.98641E+00  0.00000E+00  0.00000E+00  0.00000E+00  0.00000E+00
    95  4.26356E-05 -5.05966E+00 -5.05966E+00  0.00000E+00  0.00000E+00  0.00000E+00  0.00000E+00
    96  4.38183E-05 -5.13052E+00 -5.13052E+00  0.00000E+00  0.00000E+00  0.00000E+00  0.00000E+00
    97  4.50305E-05 -5.19883E+00 -5.19883E+00  0.00000E+00  0.00000E+00  0.00000E+00  0.00000E+00
    98  4.62731E-05 -5.26442E+00 -5.26442E+00  0.00000E+00  0.00000E+00  0.00000E+00  0.00000E+00
    99  4.75468E-05 -5.32714E+00 -5.32714E+00  0.00000E+00  0.00000E+00  0.00000E+00  0.00000E+00
   100  4.88524E-05 -5.38685E+00 -5.38685E+00  0.00000E+00  0.00000E+00  0.00000E+00  0.00000E+00
   101  5.01906E-05 -5.44345E+00 -5.44345E+00  0.00000E+00  0.00000E+00  0.00000E+00  0.00000E+00
   102  5.15624E-05 -5.49685E+00 -5.49685E+00  0.00000E+00  0.00000E+00  0.00000E+00  0.00000E+00
   103  5.29684E-05 -5.54700E+00 -5.54700E+00  0.00000E+00  0.00000E+00  0.00000E+00  0.00000E+00
   104  5.44096E-05 -5.59385E+00 -5.59385E+00  0.00000E+00  0.00000E+00  0.00000E+00  0.00000E+00
   105  5.58869E-05 -5.63742E+00 -5.63742E+00  0.00000E+00  0.00000E+00  0.00000E+00  0.00000E+00
   106  5.74012E-05 -5.67772E+00 -5.67772E+00  0.00000E+00  0.00000E+00  0.00000E+00  0.00000E+00
   107  5.89533E-05 -5.71480E+00 -5.71480E+00  0.00000E+00  0.00000E+00  0.00000E+00  0.00000E+00
   108  6.05443E-05 -5.74875E+00 -5.74875E+00  0.00000E+00  0.00000E+00  0.00000E+00  0.00000E+00
   109  6.21751E-05 -5.77965E+00 -5.77965E+00  0.00000E+00  0.00000E+00  0.00000E+00  0.00000E+00
   110  6.38467E-05 -5.80765E+00 -5.80765E+00  0.00000E+00  0.00000E+00  0.00000E+00  0.00000E+00
   111  6.55601E-05 -5.83286E+00 -5.83286E+00  0.00000E+00  0.00000E+00  0.00000E+00  0.00000E+00
   112  6.73164E-05 -5.85545E+00 -5.85545E+00  0.00000E+00  0.00000E+00  0.00000E+00  0.00000E+00
   113  6.91166E-05 -5.87559E+00 -5.87559E+00  0.00000E+00  0.00000E+00  0.00000E+00  0.00000E+00
   114  7.09619E-05 -5.89343E+00 -5.89343E+00  0.00000E+00  0.00000E+00  0.00000E+00  0.00000E+00
   115  7.28534E-05 -5.90916E+00 -5.90916E+00  0.00000E+00  0.00000E+00  0.00000E+00  0.00000E+00
   116  7.47922E-05 -5.92295E+00 -5.92295E+00  0.00000E+00  0.00000E+00  0.00000E+00  0.00000E+00
   117  7.67794E-05 -5.93497E+00 -5.93497E+00  0.00000E+00  0.00000E+00  0.00000E+00  0.00000E+00
   118  7.88165E-05 -5.94539E+00 -5.94539E+00  0.00000E+00  0.00000E+00  0.00000E+00  0.00000E+00
   119  8.09045E-05 -5.95438E+00 -5.95438E+00  0.00000E+00  0.00000E+00  0.00000E+00  0.00000E+00
   120  8.30447E-05 -5.96209E+00 -5.96209E+00  0.00000E+00  0.00000E+00  0.00000E+00  0.00000E+00
   121  8.52385E-05 -5.96867E+00 -5.96867E+00  0.00000E+00  0.00000E+00  0.00000E+00  0.00000E+00
   122  8.74871E-05 -5.97424E+00 -5.97424E+00  0.00000E+00  0.00000E+00  0.00000E+00  0.00000E+00
   123  8.97921E-05 -5.97894E+00 -5.97894E+00  0.00000E+00  0.00000E+00  0.00000E+00  0.00000E+00
   124  9.21547E-05 -5.98288E+00 -5.98288E+00  0.00000E+00  0.00000E+00  0.00000E+00  0.00000E+00
   125  9.45764E-05 -5.98617E+00 -5.98617E+00  0.00000E+00  0.00000E+00  0.00000E+00  0.00000E+00
   126  9.70587E-05 -5.98888E+00 -5.98888E+00  0.00000E+00  0.00000E+00  0.00000E+00  0.00000E+00
   127  9.96032E-05 -5.99112E+00 -5.99112E+00  0.00000E+00  0.00000E+00  0.00000E+00  0.00000E+00
   128  1.02211E-04 -5.99295E+00 -5.99295E+00  0.00000E+00  0.00000E+00  0.00000E+00  0.00000E+00
   129  1.04885E-04 -5.99444E+00 -5.99444E+00  0.00000E+00  0.00000E+00  0.00000E+00  0.00000E+00
   130  1.07625E-04 -5.99565E+00 -5.99565E+00  0.00000E+00  0.00000E+00  0.00000E+00  0.00000E+00
   131  1.10434E-04 -5.99661E+00 -5.99661E+00  0.00000E+00  0.00000E+00  0.00000E+00  0.00000E+00
   132  1.13313E-04 -5.99738E+00 -5.99738E+00  0.00000E+00  0.00000E+00  0.00000E+00  0.00000E+00
   133  1.16264E-04 -5.99799E+00 -5.99799E+00  0.00000E+00  0.00000E+00  0.00000E+00  0.00000E+00
   134  1.19289E-04 -5.99847E+00 -5.99847E+00  0.00000E+00  0.00000E+00  0.00000E+00  0.00000E+00
   135  1.22390E-04 -5.99884E+00 -5.99884E+00  0.00000E+00  0.00000E+00  0.00000E+00  0.00000E+00
   136  1.25568E-04 -5.99913E+00 -5.99913E+00  0.00000E+00  0.00000E+00  0.00000E+00  0.00000E+00
   137  1.28826E-04 -5.99935E+00 -5.99935E+00  0.00000E+00  0.00000E+00  0.00000E+00  0.00000E+00
   138  1.32165E-04 -5.99952E+00 -5.99952E+00  0.00000E+00  0.00000E+00  0.00000E+00  0.00000E+00
   139  1.35588E-04 -5.99965E+00 -5.99965E+00  0.00000E+00  0.00000E+00  0.00000E+00  0.00000E+00
   140  1.39096E-04 -5.99974E+00 -5.99974E+00  0.00000E+00  0.00000E+00  0.00000E+00  0.00000E+00
   141  1.42692E-04 -5.99981E+00 -5.99981E+00  0.00000E+00  0.00000E+00  0.00000E+00  0.00000E+00
   142  1.46379E-04 -5.99987E+00 -5.99987E+00  0.00000E+00  0.00000E+00  0.00000E+00  0.00000E+00
   143  1.50157E-04 -5.99991E+00 -5.99991E+00  0.00000E+00  0.00000E+00  0.00000E+00  0.00000E+00
   144  1.54030E-04 -5.99993E+00 -5.99993E+00  0.00000E+00  0.00000E+00  0.00000E+00  0.00000E+00
   145  1.58000E-04 -5.99995E+00 -5.99995E+00  0.00000E+00  0.00000E+00  0.00000E+00  0.00000E+00
   146  1.62069E-04 -5.99997E+00 -5.99997E+00  0.00000E+00  0.00000E+00  0.00000E+00  0.00000E+00
   147  1.66241E-04 -5.99998E+00 -5.99998E+00  0.00000E+00  0.00000E+00  0.00000E+00  0.00000E+00
   148  1.70516E-04 -5.99999E+00 -5.99999E+00  0.00000E+00  0.00000E+00  0.00000E+00  0.00000E+00
   149  1.74898E-04 -5.99999E+00 -5.99999E+00  0.00000E+00  0.00000E+00  0.00000E+00  0.00000E+00
   150  1.79390E-04 -5.99999E+00 -5.99999E+00  0.00000E+00  0.00000E+00  0.00000E+00  0.00000E+00
   151  1.83995E-04 -6.00000E+00 -6.00000E+00  0.00000E+00  0.00000E+00  0.00000E+00  0.00000E+00
   152  1.88715E-04 -6.00000E+00 -6.00000E+00  0.00000E+00  0.00000E+00  0.00000E+00  0.00000E+00
   153  1.93552E-04 -6.00000E+00 -6.00000E+00  0.00000E+00  0.00000E+00  0.00000E+00  0.00000E+00
   154  1.98511E-04 -6.00000E+00 -6.00000E+00  0.00000E+00  0.00000E+00  0.00000E+00  0.00000E+00
   155  2.03594E-04 -6.00000E+00 -6.00000E+00  0.00000E+00  0.00000E+00  0.00000E+00  0.00000E+00
   156  2.08804E-04 -6.00000E+00 -6.00000E+00  0.00000E+00  0.00000E+00  0.00000E+00  0.00000E+00
   157  2.14145E-04 -6.00000E+00 -6.00000E+00  0.00000E+00  0.00000E+00  0.00000E+00  0.00000E+00
   158  2.19619E-04 -6.00000E+00 -6.00000E+00  0.00000E+00  0.00000E+00  0.00000E+00  0.00000E+00
   159  2.25230E-04 -6.00000E+00 -6.00000E+00  0.00000E+00  0.00000E+00  0.00000E+00  0.00000E+00
   160  2.30981E-04 -6.00000E+00 -6.00000E+00  0.00000E+00  0.00000E+00  0.00000E+00  0.00000E+00
   161  2.36877E-04 -6.00000E+00 -6.00000E+00  0.00000E+00  0.00000E+00  0.00000E+00  0.00000E+00
   162  2.42919E-04 -6.00000E+00 -6.00000E+00  0.00000E+00  0.00000E+00  0.00000E+00  0.00000E+00
   163  2.49113E-04 -6.00000E+00 -6.00000E+00  0.00000E+00  0.00000E+00  0.00000E+00  0.00000E+00
   164  2.55462E-04 -6.00000E+00 -6.00000E+00  0.00000E+00  0.00000E+00  0.00000E+00  0.00000E+00
   165  2.61970E-04 -6.00000E+00 -6.00000E+00  0.00000E+00  0.00000E+00  0.00000E+00  0.00000E+00
   166  2.68641E-04 -6.00000E+00 -6.00000E+00  0.00000E+00  0.00000E+00  0.00000E+00  0.00000E+00
   167  2.75479E-04 -6.00000E+00 -6.00000E+00  0.00000E+00  0.00000E+00  0.00000E+00  0.00000E+00
   168  2.82487E-04 -6.00000E+00 -6.00000E+00  0.00000E+00  0.00000E+00  0.00000E+00  0.00000E+00
   169  2.89671E-04 -6.00000E+00 -6.00000E+00  0.00000E+00  0.00000E+00  0.00000E+00  0.00000E+00
   170  2.97035E-04 -6.00000E+00 -6.00000E+00  0.00000E+00  0.00000E+00  0.00000E+00  0.00000E+00
   171  3.04583E-04 -6.00000E+00 -6.00000E+00  0.00000E+00  0.00000E+00  0.00000E+00  0.00000E+00
   172  3.12320E-04 -6.00000E+00 -6.00000E+00  0.00000E+00  0.00000E+00  0.00000E+00  0.00000E+00
   173  3.20251E-04 -6.00000E+00 -6.00000E+00  0.00000E+00  0.00000E+00  0.00000E+00  0.00000E+00
   174  3.28380E-04 -6.00000E+00 -6.00000E+00  0.00000E+00  0.00000E+00  0.00000E+00  0.00000E+00
   175  3.36712E-04 -6.00000E+00 -6.00000E+00  0.00000E+00  0.00000E+00  0.00000E+00  0.00000E+00
   176  3.36712E-04 -6.00000E+00 -6.00000E+00  0.00000E+00  0.00000E+00  0.00000E+00  0.00000E+00
   177  6.73424E-04 -6.00000E+00 -6.00000E+00  0.00000E+00  0.00000E+00  0.00000E+00  0.00000E+00
   178  1.34685E-03 -6.00000E+00 -6.00000E+00  0.00000E+00  0.00000E+00  0.00000E+00  0.00000E+00
   179  2.69370E-03 -6.00000E+00 -6.00000E+00  0.00000E+00  0.00000E+00  0.00000E+00  0.00000E+00
   180  5.38739E-03 -6.00000E+00 -6.00000E+00  0.00000E+00  0.00000E+00  0.00000E+00  0.00000E+00
   181  1.07748E-02 -6.00000E+00 -6.00000E+00  0.00000E+00  0.00000E+00  0.00000E+00  0.00000E+00
   182  2.15496E-02 -6.00000E+00 -6.00000E+00  0.00000E+00  0.00000E+00  0.00000E+00  0.00000E+00
   183  4.30991E-02 -6.00000E+00 -6.00000E+00  0.00000E+00  0.00000E+00  0.00000E+00  0.00000E+00
   184  8.61983E-02 -6.00000E+00 -6.00000E+00  0.00000E+00  0.00000E+00  0.00000E+00  0.00000E+00
   185  1.72397E-01 -6.00000E+00 -6.00000E+00  0.00000E+00  0.00000E+00  0.00000E+00  0.00000E+00
   186  3.44793E-01 -6.00000E+00 -6.00000E+00  0.00000E+00  0.00000E+00  0.00000E+00  0.00000E+00
   187  6.89586E-01 -6.00000E+00 -6.00000E+00  0.00000E+00  0.00000E+00  0.00000E+00  0.00000E+00
   188  1.37917E+00 -6.00000E+00 -6.00000E+00  0.00000E+00  0.00000E+00  0.00000E+00  0.00000E+00
   189  2.75834E+00 -6.00000E+00 -6.00000E+00  0.00000E+00  0.00000E+00  0.00000E+00  0.00000E+00
   190  5.51669E+00 -6.00000E+00 -6.00000E+00  0.00000E+00  0.00000E+00  0.00000E+00  0.00000E+00
   191  1.10334E+01 -6.00000E+00 -6.00000E+00  0.00000E+00  0.00000E+00  0.00000E+00  0.00000E+00
   192  2.20668E+01 -6.00000E+00 -6.00000E+00  0.00000E+00  0.00000E+00  0.00000E+00  0.00000E+00
   193  4.41335E+01 -6.00000E+00 -6.00000E+00  0.00000E+00  0.00000E+00  0.00000E+00  0.00000E+00
   194  8.82670E+01 -6.00000E+00 -6.00000E+00  0.00000E+00  0.00000E+00  0.00000E+00  0.00000E+00
   195  1.76534E+02 -6.00000E+00 -6.00000E+00  0.00000E+00  0.00000E+00  0.00000E+00  0.00000E+00
   196  3.53068E+02 -6.00000E+00 -6.00000E+00  0.00000E+00  0.00000E+00  0.00000E+00  0.00000E+00
   197  7.06136E+02 -6.00000E+00 -6.00000E+00  0.00000E+00  0.00000E+00  0.00000E+00  0.00000E+00
   198  1.41227E+03 -6.00000E+00 -6.00000E+00  0.00000E+00  0.00000E+00  0.00000E+00  0.00000E+00
   199  2.82454E+03 -6.00000E+00 -6.00000E+00  0.00000E+00  0.00000E+00  0.00000E+00  0.00000E+00
   200  5.64909E+03 -6.00000E+00 -6.00000E+00  0.00000E+00  0.00000E+00  0.00000E+00  0.00000E+00
