 #  Scattering field.
 #  All quantities in atomic units (a.u.), unless otherwise indicated.
 #  Z =  53, NELEC =  53,   projectile: electron
 #  Kinetic energy = 1.35973E+05 a.u. = 3.70000E+06 eV
 #
 #   i       r           r*V         r*Vst        r*Vex       r*Vpol       r*Wabs        rho_e
 #------------------------------------------------------------------------------------------------
     1  0.00000E+00  0.00000E+00  0.00000E+00  0.00000E+00  0.00000E+00  0.00000E+00  0.00000E+00
     2  2.37786E-07 -1.74586E-01 -1.74586E-01  0.00000E+00  0.00000E+00  0.00000E+00  0.00000E+00
     3  4.81145E-07 -3.53261E-01 -3.53261E-01  0.00000E+00  0.00000E+00  0.00000E+00  0.00000E+00
     4  7.30198E-07 -5.36114E-01 -5.36114E-01  0.00000E+00  0.00000E+00  0.00000E+00  0.00000E+00
     5  9.85080E-07 -7.23239E-01 -7.23239E-01  0.00000E+00  0.00000E+00  0.00000E+00  0.00000E+00
     6  1.24593E-06 -9.14734E-01 -9.14734E-01  0.00000E+00  0.00000E+00  0.00000E+00  0.00000E+00
     7  1.51288E-06 -1.11070E+00 -1.11070E+00  0.00000E+00  0.00000E+00  0.00000E+00  0.00000E+00
     8  1.78608E-06 -1.31123E+00 -1.31123E+00  0.00000E+00  0.00000E+00  0.00000E+00  0.00000E+00
     9  2.06567E-06 -1.51644E+00 -1.51644E+00  0.00000E+00  0.00000E+00  0.00000E+00  0.00000E+00
    10  2.35180E-06 -1.72643E+00 -1.72643E+00  0.00000E+00  0.00000E+00  0.00000E+00  0.00000E+00
    11  2.64463E-06 -1.94131E+00 -1.94131E+00  0.00000E+00  0.00000E+00  0.00000E+00  0.00000E+00
    12  2.94432E-06 -2.16118E+00 -2.16118E+00  0.00000E+00  0.00000E+00  0.00000E+00  0.00000E+00
    13  3.25102E-06 -2.38616E+00 -2.38616E+00  0.00000E+00  0.00000E+00  0.00000E+00  0.00000E+00
    14  3.56489E-06 -2.61636E+00 -2.61636E+00  0.00000E+00  0.00000E+00  0.00000E+00  0.00000E+00
    15  3.88611E-06 -2.85190E+00 -2.85190E+00  0.00000E+00  0.00000E+00  0.00000E+00  0.00000E+00
    16  4.21485E-06 -3.09289E+00 -3.09289E+00  0.00000E+00  0.00000E+00  0.00000E+00  0.00000E+00
    17  4.55128E-06 -3.33946E+00 -3.33946E+00  0.00000E+00  0.00000E+00  0.00000E+00  0.00000E+00
    18  4.89558E-06 -3.59172E+00 -3.59172E+00  0.00000E+00  0.00000E+00  0.00000E+00  0.00000E+00
    19  5.24794E-06 -3.84981E+00 -3.84981E+00  0.00000E+00  0.00000E+00  0.00000E+00  0.00000E+00
    20  5.60855E-06 -4.11384E+00 -4.11384E+00  0.00000E+00  0.00000E+00  0.00000E+00  0.00000E+00
    21  5.97760E-06 -4.38395E+00 -4.38395E+00  0.00000E+00  0.00000E+00  0.00000E+00  0.00000E+00
    22  6.35528E-06 -4.66026E+00 -4.66026E+00  0.00000E+00  0.00000E+00  0.00000E+00  0.00000E+00
    23  6.74180E-06 -4.94291E+00 -4.94291E+00  0.00000E+00  0.00000E+00  0.00000E+00  0.00000E+00
    24  7.13737E-06 -5.23203E+00 -5.23203E+00  0.00000E+00  0.00000E+00  0.00000E+00  0.00000E+00
    25  7.54219E-06 -5.52776E+00 -5.52776E+00  0.00000E+00  0.00000E+00  0.00000E+00  0.00000E+00
    26  7.95649E-06 -5.83023E+00 -5.83023E+00  0.00000E+00  0.00000E+00  0.00000E+00  0.00000E+00
    27  8.38049E-06 -6.13959E+00 -6.13959E+00  0.00000E+00  0.00000E+00  0.00000E+00  0.00000E+00
    28  8.81440E-06 -6.45597E+00 -6.45597E+00  0.00000E+00  0.00000E+00  0.00000E+00  0.00000E+00
    29  9.25847E-06 -6.77952E+00 -6.77952E+00  0.00000E+00  0.00000E+00  0.00000E+00  0.00000E+00
    30  9.71293E-06 -7.11038E+00 -7.11038E+00  0.00000E+00  0.00000E+00  0.00000E+00  0.00000E+00
    31  1.01780E-05 -7.44870E+00 -7.44870E+00  0.00000E+00  0.00000E+00  0.00000E+00  0.00000E+00
    32  1.06540E-05 -7.79462E+00 -7.79462E+00  0.00000E+00  0.00000E+00  0.00000E+00  0.00000E+00
    33  1.11411E-05 -8.14829E+00 -8.14829E+00  0.00000E+00  0.00000E+00  0.00000E+00  0.00000E+00
    34  1.16397E-05 -8.50987E+00 -8.50987E+00  0.00000E+00  0.00000E+00  0.00000E+00  0.00000E+00
    35  1.21498E-05 -8.87949E+00 -8.87949E+00  0.00000E+00  0.00000E+00  0.00000E+00  0.00000E+00
    36  1.26720E-05 -9.25731E+00 -9.25731E+00  0.00000E+00  0.00000E+00  0.00000E+00  0.00000E+00
    37  1.32063E-05 -9.64348E+00 -9.64348E+00  0.00000E+00  0.00000E+00  0.00000E+00  0.00000E+00
    38  1.37532E-05 -1.00382E+01 -1.00382E+01  0.00000E+00  0.00000E+00  0.00000E+00  0.00000E+00
    39  1.43128E-05 -1.04415E+01 -1.04415E+01  0.00000E+00  0.00000E+00  0.00000E+00  0.00000E+00
    40  1.48856E-05 -1.08536E+01 -1.08536E+01  0.00000E+00  0.00000E+00  0.00000E+00  0.00000E+00
    41  1.54717E-05 -1.12747E+01 -1.12747E+01  0.00000E+00  0.00000E+00  0.00000E+00  0.00000E+00
    42  1.60716E-05 -1.17048E+01 -1.17048E+01  0.00000E+00  0.00000E+00  0.00000E+00  0.00000E+00
    43  1.66855E-05 -1.21443E+01 -1.21443E+01  0.00000E+00  0.00000E+00  0.00000E+00  0.00000E+00
    44  1.73138E-05 -1.25931E+01 -1.25931E+01  0.00000E+00  0.00000E+00  0.00000E+00  0.00000E+00
    45  1.79567E-05 -1.30514E+01 -1.30514E+01  0.00000E+00  0.00000E+00  0.00000E+00  0.00000E+00
    46  1.86148E-05 -1.35194E+01 -1.35194E+01  0.00000E+00  0.00000E+00  0.00000E+00  0.00000E+00
    47  1.92882E-05 -1.39972E+01 -1.39972E+01  0.00000E+00  0.00000E+00  0.00000E+00  0.00000E+00
    48  1.99774E-05 -1.44849E+01 -1.44849E+01  0.00000E+00  0.00000E+00  0.00000E+00  0.00000E+00
    49  2.06827E-05 -1.49827E+01 -1.49827E+01  0.00000E+00  0.00000E+00  0.00000E+00  0.00000E+00
    50  2.14045E-05 -1.54907E+01 -1.54907E+01  0.00000E+00  0.00000E+00  0.00000E+00  0.00000E+00
    51  2.21432E-05 -1.60090E+01 -1.60090E+01  0.00000E+00  0.00000E+00  0.00000E+00  0.00000E+00
    52  2.28992E-05 -1.65377E+01 -1.65377E+01  0.00000E+00  0.00000E+00  0.00000E+00  0.00000E+00
    53  2.36729E-05 -1.70769E+01 -1.70769E+01  0.00000E+00  0.00000E+00  0.00000E+00  0.00000E+00
    54  2.44647E-05 -1.76267E+01 -1.76267E+01  0.00000E+00  0.00000E+00  0.00000E+00  0.00000E+00
    55  2.52750E-05 -1.81872E+01 -1.81872E+01  0.00000E+00  0.00000E+00  0.00000E+00  0.00000E+00
    56  2.61043E-05 -1.87584E+01 -1.87584E+01  0.00000E+00  0.00000E+00  0.00000E+00  0.00000E+00
    57  2.69530E-05 -1.93405E+01 -1.93405E+01  0.00000E+00  0.00000E+00  0.00000E+00  0.00000E+00
    58  2.78215E-05 -1.99334E+01 -1.99334E+01  0.00000E+00  0.00000E+00  0.00000E+00  0.00000E+00
    59  2.87104E-05 -2.05372E+01 -2.05372E+01  0.00000E+00  0.00000E+00  0.00000E+00  0.00000E+00
    60  2.96201E-05 -2.11519E+01 -2.11519E+01  0.00000E+00  0.00000E+00  0.00000E+00  0.00000E+00
    61  3.05510E-05 -2.17775E+01 -2.17775E+01  0.00000E+00  0.00000E+00  0.00000E+00  0.00000E+00
    62  3.15038E-05 -2.24140E+01 -2.24140E+01  0.00000E+00  0.00000E+00  0.00000E+00  0.00000E+00
    63  3.24788E-05 -2.30612E+01 -2.30612E+01  0.00000E+00  0.00000E+00  0.00000E+00  0.00000E+00
    64  3.34767E-05 -2.37193E+01 -2.37193E+01  0.00000E+00  0.00000E+00  0.00000E+00  0.00000E+00
    65  3.44979E-05 -2.43880E+01 -2.43880E+01  0.00000E+00  0.00000E+00  0.00000E+00  0.00000E+00
    66  3.55431E-05 -2.50672E+01 -2.50672E+01  0.00000E+00  0.00000E+00  0.00000E+00  0.00000E+00
    67  3.66126E-05 -2.57569E+01 -2.57569E+01  0.00000E+00  0.00000E+00  0.00000E+00  0.00000E+00
    68  3.77073E-05 -2.64566E+01 -2.64566E+01  0.00000E+00  0.00000E+00  0.00000E+00  0.00000E+00
    69  3.88275E-05 -2.71664E+01 -2.71664E+01  0.00000E+00  0.00000E+00  0.00000E+00  0.00000E+00
    70  3.99739E-05 -2.78858E+01 -2.78858E+01  0.00000E+00  0.00000E+00  0.00000E+00  0.00000E+00
    71  4.11472E-05 -2.86146E+01 -2.86146E+01  0.00000E+00  0.00000E+00  0.00000E+00  0.00000E+00
    72  4.23479E-05 -2.93524E+01 -2.93524E+01  0.00000E+00  0.00000E+00  0.00000E+00  0.00000E+00
    73  4.35768E-05 -3.00989E+01 -3.00989E+01  0.00000E+00  0.00000E+00  0.00000E+00  0.00000E+00
    74  4.48343E-05 -3.08534E+01 -3.08534E+01  0.00000E+00  0.00000E+00  0.00000E+00  0.00000E+00
    75  4.61214E-05 -3.16155E+01 -3.16155E+01  0.00000E+00  0.00000E+00  0.00000E+00  0.00000E+00
    76  4.74385E-05 -3.23847E+01 -3.23847E+01  0.00000E+00  0.00000E+00  0.00000E+00  0.00000E+00
    77  4.87864E-05 -3.31601E+01 -3.31601E+01  0.00000E+00  0.00000E+00  0.00000E+00  0.00000E+00
    78  5.01660E-05 -3.39412E+01 -3.39412E+01  0.00000E+00  0.00000E+00  0.00000E+00  0.00000E+00
    79  5.15777E-05 -3.47271E+01 -3.47271E+01  0.00000E+00  0.00000E+00  0.00000E+00  0.00000E+00
    80  5.30226E-05 -3.55168E+01 -3.55168E+01  0.00000E+00  0.00000E+00  0.00000E+00  0.00000E+00
    81  5.45012E-05 -3.63093E+01 -3.63093E+01  0.00000E+00  0.00000E+00  0.00000E+00  0.00000E+00
    82  5.60144E-05 -3.71036E+01 -3.71036E+01  0.00000E+00  0.00000E+00  0.00000E+00  0.00000E+00
    83  5.75631E-05 -3.78985E+01 -3.78985E+01  0.00000E+00  0.00000E+00  0.00000E+00  0.00000E+00
    84  5.91480E-05 -3.86925E+01 -3.86925E+01  0.00000E+00  0.00000E+00  0.00000E+00  0.00000E+00
    85  6.07700E-05 -3.94843E+01 -3.94843E+01  0.00000E+00  0.00000E+00  0.00000E+00  0.00000E+00
    86  6.24299E-05 -4.02723E+01 -4.02723E+01  0.00000E+00  0.00000E+00  0.00000E+00  0.00000E+00
    87  6.41287E-05 -4.10548E+01 -4.10548E+01  0.00000E+00  0.00000E+00  0.00000E+00  0.00000E+00
    88  6.58673E-05 -4.18299E+01 -4.18299E+01  0.00000E+00  0.00000E+00  0.00000E+00  0.00000E+00
    89  6.76465E-05 -4.25956E+01 -4.25956E+01  0.00000E+00  0.00000E+00  0.00000E+00  0.00000E+00
    90  6.94674E-05 -4.33498E+01 -4.33498E+01  0.00000E+00  0.00000E+00  0.00000E+00  0.00000E+00
    91  7.13308E-05 -4.40903E+01 -4.40903E+01  0.00000E+00  0.00000E+00  0.00000E+00  0.00000E+00
    92  7.32379E-05 -4.48147E+01 -4.48147E+01  0.00000E+00  0.00000E+00  0.00000E+00  0.00000E+00
    93  7.51896E-05 -4.55203E+01 -4.55203E+01  0.00000E+00  0.00000E+00  0.00000E+00  0.00000E+00
    94  7.71870E-05 -4.62045E+01 -4.62045E+01  0.00000E+00  0.00000E+00  0.00000E+00  0.00000E+00
    95  7.92312E-05 -4.68647E+01 -4.68647E+01  0.00000E+00  0.00000E+00  0.00000E+00  0.00000E+00
    96  8.13232E-05 -4.74981E+01 -4.74981E+01  0.00000E+00  0.00000E+00  0.00000E+00  0.00000E+00
    97  8.34641E-05 -4.81018E+01 -4.81018E+01  0.00000E+00  0.00000E+00  0.00000E+00  0.00000E+00
    98  8.56551E-05 -4.86732E+01 -4.86732E+01  0.00000E+00  0.00000E+00  0.00000E+00  0.00000E+00
    99  8.78974E-05 -4.92097E+01 -4.92097E+01  0.00000E+00  0.00000E+00  0.00000E+00  0.00000E+00
   100  9.01922E-05 -4.97091E+01 -4.97091E+01  0.00000E+00  0.00000E+00  0.00000E+00  0.00000E+00
   101  9.25407E-05 -5.01693E+01 -5.01693E+01  0.00000E+00  0.00000E+00  0.00000E+00  0.00000E+00
   102  9.49441E-05 -5.05890E+01 -5.05890E+01  0.00000E+00  0.00000E+00  0.00000E+00  0.00000E+00
   103  9.74038E-05 -5.09673E+01 -5.09673E+01  0.00000E+00  0.00000E+00  0.00000E+00  0.00000E+00
   104  9.99211E-05 -5.13042E+01 -5.13042E+01  0.00000E+00  0.00000E+00  0.00000E+00  0.00000E+00
   105  1.02497E-04 -5.16002E+01 -5.16002E+01  0.00000E+00  0.00000E+00  0.00000E+00  0.00000E+00
   106  1.05134E-04 -5.18569E+01 -5.18569E+01  0.00000E+00  0.00000E+00  0.00000E+00  0.00000E+00
   107  1.07832E-04 -5.20764E+01 -5.20764E+01  0.00000E+00  0.00000E+00  0.00000E+00  0.00000E+00
   108  1.10593E-04 -5.22615E+01 -5.22615E+01  0.00000E+00  0.00000E+00  0.00000E+00  0.00000E+00
   109  1.13419E-04 -5.24154E+01 -5.24154E+01  0.00000E+00  0.00000E+00  0.00000E+00  0.00000E+00
   110  1.16311E-04 -5.25419E+01 -5.25419E+01  0.00000E+00  0.00000E+00  0.00000E+00  0.00000E+00
   111  1.19271E-04 -5.26444E+01 -5.26444E+01  0.00000E+00  0.00000E+00  0.00000E+00  0.00000E+00
   112  1.22300E-04 -5.27265E+01 -5.27265E+01  0.00000E+00  0.00000E+00  0.00000E+00  0.00000E+00
   113  1.25400E-04 -5.27915E+01 -5.27915E+01  0.00000E+00  0.00000E+00  0.00000E+00  0.00000E+00
   114  1.28572E-04 -5.28425E+01 -5.28425E+01  0.00000E+00  0.00000E+00  0.00000E+00  0.00000E+00
   115  1.31819E-04 -5.28820E+01 -5.28820E+01  0.00000E+00  0.00000E+00  0.00000E+00  0.00000E+00
   116  1.35141E-04 -5.29123E+01 -5.29123E+01  0.00000E+00  0.00000E+00  0.00000E+00  0.00000E+00
   117  1.38542E-04 -5.29354E+01 -5.29354E+01  0.00000E+00  0.00000E+00  0.00000E+00  0.00000E+00
   118  1.42022E-04 -5.29528E+01 -5.29528E+01  0.00000E+00  0.00000E+00  0.00000E+00  0.00000E+00
   119  1.45583E-04 -5.29658E+01 -5.29658E+01  0.00000E+00  0.00000E+00  0.00000E+00  0.00000E+00
   120  1.49228E-04 -5.29754E+01 -5.29754E+01  0.00000E+00  0.00000E+00  0.00000E+00  0.00000E+00
   121  1.52958E-04 -5.29825E+01 -5.29825E+01  0.00000E+00  0.00000E+00  0.00000E+00  0.00000E+00
   122  1.56775E-04 -5.29876E+01 -5.29876E+01  0.00000E+00  0.00000E+00  0.00000E+00  0.00000E+00
   123  1.60682E-04 -5.29913E+01 -5.29913E+01  0.00000E+00  0.00000E+00  0.00000E+00  0.00000E+00
   124  1.64680E-04 -5.29940E+01 -5.29940E+01  0.00000E+00  0.00000E+00  0.00000E+00  0.00000E+00
   125  1.68771E-04 -5.29959E+01 -5.29959E+01  0.00000E+00  0.00000E+00  0.00000E+00  0.00000E+00
   126  1.72959E-04 -5.29972E+01 -5.29972E+01  0.00000E+00  0.00000E+00  0.00000E+00  0.00000E+00
   127  1.77244E-04 -5.29981E+01 -5.29981E+01  0.00000E+00  0.00000E+00  0.00000E+00  0.00000E+00
   128  1.81630E-04 -5.29987E+01 -5.29987E+01  0.00000E+00  0.00000E+00  0.00000E+00  0.00000E+00
   129  1.86118E-04 -5.29992E+01 -5.29992E+01  0.00000E+00  0.00000E+00  0.00000E+00  0.00000E+00
   130  1.90711E-04 -5.29995E+01 -5.29995E+01  0.00000E+00  0.00000E+00  0.00000E+00  0.00000E+00
   131  1.95412E-04 -5.29996E+01 -5.29996E+01  0.00000E+00  0.00000E+00  0.00000E+00  0.00000E+00
   132  2.00223E-04 -5.29998E+01 -5.29998E+01  0.00000E+00  0.00000E+00  0.00000E+00  0.00000E+00
   133  2.05146E-04 -5.29999E+01 -5.29999E+01  0.00000E+00  0.00000E+00  0.00000E+00  0.00000E+00
   134  2.10185E-04 -5.29999E+01 -5.29999E+01  0.00000E+00  0.00000E+00  0.00000E+00  0.00000E+00
   135  2.15342E-04 -5.29999E+01 -5.29999E+01  0.00000E+00  0.00000E+00  0.00000E+00  0.00000E+00
   136  2.20619E-04 -5.30000E+01 -5.30000E+01  0.00000E+00  0.00000E+00  0.00000E+00  0.00000E+00
   137  2.26020E-04 -5.30000E+01 -5.30000E+01  0.00000E+00  0.00000E+00  0.00000E+00  0.00000E+00
   138  2.31547E-04 -5.30000E+01 -5.30000E+01  0.00000E+00  0.00000E+00  0.00000E+00  0.00000E+00
   139  2.37203E-04 -5.30000E+01 -5.30000E+01  0.00000E+00  0.00000E+00  0.00000E+00  0.00000E+00
   140  2.42992E-04 -5.30000E+01 -5.30000E+01  0.00000E+00  0.00000E+00  0.00000E+00  0.00000E+00
   141  2.48916E-04 -5.30000E+01 -5.30000E+01  0.00000E+00  0.00000E+00  0.00000E+00  0.00000E+00
   142  2.54979E-04 -5.30000E+01 -5.30000E+01  0.00000E+00  0.00000E+00  0.00000E+00  0.00000E+00
   143  2.61184E-04 -5.30000E+01 -5.30000E+01  0.00000E+00  0.00000E+00  0.00000E+00  0.00000E+00
   144  2.67534E-04 -5.30000E+01 -5.30000E+01  0.00000E+00  0.00000E+00  0.00000E+00  0.00000E+00
   145  2.74032E-04 -5.30000E+01 -5.30000E+01  0.00000E+00  0.00000E+00  0.00000E+00  0.00000E+00
   146  2.80683E-04 -5.30000E+01 -5.30000E+01  0.00000E+00  0.00000E+00  0.00000E+00  0.00000E+00
   147  2.87489E-04 -5.30000E+01 -5.30000E+01  0.00000E+00  0.00000E+00  0.00000E+00  0.00000E+00
   148  2.94455E-04 -5.30000E+01 -5.30000E+01  0.00000E+00  0.00000E+00  0.00000E+00  0.00000E+00
   149  3.01583E-04 -5.30000E+01 -5.30000E+01  0.00000E+00  0.00000E+00  0.00000E+00  0.00000E+00
   150  3.08879E-04 -5.30000E+01 -5.30000E+01  0.00000E+00  0.00000E+00  0.00000E+00  0.00000E+00
   151  3.16345E-04 -5.30000E+01 -5.30000E+01  0.00000E+00  0.00000E+00  0.00000E+00  0.00000E+00
   152  3.23986E-04 -5.30000E+01 -5.30000E+01  0.00000E+00  0.00000E+00  0.00000E+00  0.00000E+00
   153  3.31805E-04 -5.30000E+01 -5.30000E+01  0.00000E+00  0.00000E+00  0.00000E+00  0.00000E+00
   154  3.39808E-04 -5.30000E+01 -5.30000E+01  0.00000E+00  0.00000E+00  0.00000E+00  0.00000E+00
   155  3.47998E-04 -5.30000E+01 -5.30000E+01  0.00000E+00  0.00000E+00  0.00000E+00  0.00000E+00
   156  3.56379E-04 -5.30000E+01 -5.30000E+01  0.00000E+00  0.00000E+00  0.00000E+00  0.00000E+00
   157  3.64957E-04 -5.30000E+01 -5.30000E+01  0.00000E+00  0.00000E+00  0.00000E+00  0.00000E+00
   158  3.73735E-04 -5.30000E+01 -5.30000E+01  0.00000E+00  0.00000E+00  0.00000E+00  0.00000E+00
   159  3.82719E-04 -5.30000E+01 -5.30000E+01  0.00000E+00  0.00000E+00  0.00000E+00  0.00000E+00
   160  3.91913E-04 -5.30000E+01 -5.30000E+01  0.00000E+00  0.00000E+00  0.00000E+00  0.00000E+00
   161  3.91913E-04 -5.30000E+01 -5.30000E+01  0.00000E+00  0.00000E+00  0.00000E+00  0.00000E+00
   162  7.83827E-04 -5.30000E+01 -5.30000E+01  0.00000E+00  0.00000E+00  0.00000E+00  0.00000E+00
   163  1.56765E-03 -5.30000E+01 -5.30000E+01  0.00000E+00  0.00000E+00  0.00000E+00  0.00000E+00
   164  3.13531E-03 -5.30000E+01 -5.30000E+01  0.00000E+00  0.00000E+00  0.00000E+00  0.00000E+00
   165  6.27061E-03 -5.30000E+01 -5.30000E+01  0.00000E+00  0.00000E+00  0.00000E+00  0.00000E+00
   166  1.25412E-02 -5.30000E+01 -5.30000E+01  0.00000E+00  0.00000E+00  0.00000E+00  0.00000E+00
   167  2.50824E-02 -5.30000E+01 -5.30000E+01  0.00000E+00  0.00000E+00  0.00000E+00  0.00000E+00
   168  5.01649E-02 -5.30000E+01 -5.30000E+01  0.00000E+00  0.00000E+00  0.00000E+00  0.00000E+00
   169  1.00330E-01 -5.30000E+01 -5.30000E+01  0.00000E+00  0.00000E+00  0.00000E+00  0.00000E+00
   170  2.00660E-01 -5.30000E+01 -5.30000E+01  0.00000E+00  0.00000E+00  0.00000E+00  0.00000E+00
   171  4.01319E-01 -5.30000E+01 -5.30000E+01  0.00000E+00  0.00000E+00  0.00000E+00  0.00000E+00
   172  8.02638E-01 -5.30000E+01 -5.30000E+01  0.00000E+00  0.00000E+00  0.00000E+00  0.00000E+00
   173  1.60528E+00 -5.30000E+01 -5.30000E+01  0.00000E+00  0.00000E+00  0.00000E+00  0.00000E+00
   174  3.21055E+00 -5.30000E+01 -5.30000E+01  0.00000E+00  0.00000E+00  0.00000E+00  0.00000E+00
   175  6.42111E+00 -5.30000E+01 -5.30000E+01  0.00000E+00  0.00000E+00  0.00000E+00  0.00000E+00
   176  1.28422E+01 -5.30000E+01 -5.30000E+01  0.00000E+00  0.00000E+00  0.00000E+00  0.00000E+00
   177  2.56844E+01 -5.30000E+01 -5.30000E+01  0.00000E+00  0.00000E+00  0.00000E+00  0.00000E+00
   178  5.13689E+01 -5.30000E+01 -5.30000E+01  0.00000E+00  0.00000E+00  0.00000E+00  0.00000E+00
   179  1.02738E+02 -5.30000E+01 -5.30000E+01  0.00000E+00  0.00000E+00  0.00000E+00  0.00000E+00
   180  2.05475E+02 -5.30000E+01 -5.30000E+01  0.00000E+00  0.00000E+00  0.00000E+00  0.00000E+00
   181  4.10951E+02 -5.30000E+01 -5.30000E+01  0.00000E+00  0.00000E+00  0.00000E+00  0.00000E+00
   182  8.21902E+02 -5.30000E+01 -5.30000E+01  0.00000E+00  0.00000E+00  0.00000E+00  0.00000E+00
   183  1.64380E+03 -5.30000E+01 -5.30000E+01  0.00000E+00  0.00000E+00  0.00000E+00  0.00000E+00
   184  3.28761E+03 -5.30000E+01 -5.30000E+01  0.00000E+00  0.00000E+00  0.00000E+00  0.00000E+00
   185  6.57521E+03 -5.30000E+01 -5.30000E+01  0.00000E+00  0.00000E+00  0.00000E+00  0.00000E+00
   186  1.31504E+04 -5.30000E+01 -5.30000E+01  0.00000E+00  0.00000E+00  0.00000E+00  0.00000E+00
