 #  Scattering field.
 #  All quantities in atomic units (a.u.), unless otherwise indicated.
 #  Z =   7, NELEC =   7,   projectile: electron
 #  Kinetic energy = 1.35973E+05 a.u. = 3.70000E+06 eV
 #
 #   i       r           r*V         r*Vst        r*Vex       r*Vpol       r*Wabs        rho_e
 #------------------------------------------------------------------------------------------------
     1  0.00000E+00  0.00000E+00  0.00000E+00  0.00000E+00  0.00000E+00  0.00000E+00  0.00000E+00
     2  1.21442E-07 -2.07915E-02 -2.07915E-02  0.00000E+00  0.00000E+00  0.00000E+00  0.00000E+00
     3  2.45912E-07 -4.21012E-02 -4.21012E-02  0.00000E+00  0.00000E+00  0.00000E+00  0.00000E+00
     4  3.73483E-07 -6.39413E-02 -6.39413E-02  0.00000E+00  0.00000E+00  0.00000E+00  0.00000E+00
     5  5.04232E-07 -8.63248E-02 -8.63248E-02  0.00000E+00  0.00000E+00  0.00000E+00  0.00000E+00
     6  6.38240E-07 -1.09265E-01 -1.09265E-01  0.00000E+00  0.00000E+00  0.00000E+00  0.00000E+00
     7  7.75586E-07 -1.32775E-01 -1.32775E-01  0.00000E+00  0.00000E+00  0.00000E+00  0.00000E+00
     8  9.16354E-07 -1.56869E-01 -1.56869E-01  0.00000E+00  0.00000E+00  0.00000E+00  0.00000E+00
     9  1.06063E-06 -1.81561E-01 -1.81561E-01  0.00000E+00  0.00000E+00  0.00000E+00  0.00000E+00
    10  1.20850E-06 -2.06866E-01 -2.06866E-01  0.00000E+00  0.00000E+00  0.00000E+00  0.00000E+00
    11  1.36006E-06 -2.32797E-01 -2.32797E-01  0.00000E+00  0.00000E+00  0.00000E+00  0.00000E+00
    12  1.51539E-06 -2.59371E-01 -2.59371E-01  0.00000E+00  0.00000E+00  0.00000E+00  0.00000E+00
    13  1.67459E-06 -2.86602E-01 -2.86602E-01  0.00000E+00  0.00000E+00  0.00000E+00  0.00000E+00
    14  1.83776E-06 -3.14506E-01 -3.14506E-01  0.00000E+00  0.00000E+00  0.00000E+00  0.00000E+00
    15  2.00499E-06 -3.43098E-01 -3.43098E-01  0.00000E+00  0.00000E+00  0.00000E+00  0.00000E+00
    16  2.17639E-06 -3.72397E-01 -3.72397E-01  0.00000E+00  0.00000E+00  0.00000E+00  0.00000E+00
    17  2.35206E-06 -4.02416E-01 -4.02416E-01  0.00000E+00  0.00000E+00  0.00000E+00  0.00000E+00
    18  2.53211E-06 -4.33175E-01 -4.33175E-01  0.00000E+00  0.00000E+00  0.00000E+00  0.00000E+00
    19  2.71664E-06 -4.64689E-01 -4.64689E-01  0.00000E+00  0.00000E+00  0.00000E+00  0.00000E+00
    20  2.90578E-06 -4.96977E-01 -4.96977E-01  0.00000E+00  0.00000E+00  0.00000E+00  0.00000E+00
    21  3.09962E-06 -5.30055E-01 -5.30055E-01  0.00000E+00  0.00000E+00  0.00000E+00  0.00000E+00
    22  3.29830E-06 -5.63943E-01 -5.63943E-01  0.00000E+00  0.00000E+00  0.00000E+00  0.00000E+00
    23  3.50192E-06 -5.98658E-01 -5.98658E-01  0.00000E+00  0.00000E+00  0.00000E+00  0.00000E+00
    24  3.71062E-06 -6.34220E-01 -6.34220E-01  0.00000E+00  0.00000E+00  0.00000E+00  0.00000E+00
    25  3.92452E-06 -6.70647E-01 -6.70647E-01  0.00000E+00  0.00000E+00  0.00000E+00  0.00000E+00
    26  4.14374E-06 -7.07958E-01 -7.07958E-01  0.00000E+00  0.00000E+00  0.00000E+00  0.00000E+00
    27  4.36843E-06 -7.46173E-01 -7.46173E-01  0.00000E+00  0.00000E+00  0.00000E+00  0.00000E+00
    28  4.59872E-06 -7.85312E-01 -7.85312E-01  0.00000E+00  0.00000E+00  0.00000E+00  0.00000E+00
    29  4.83475E-06 -8.25395E-01 -8.25395E-01  0.00000E+00  0.00000E+00  0.00000E+00  0.00000E+00
    30  5.07666E-06 -8.66442E-01 -8.66442E-01  0.00000E+00  0.00000E+00  0.00000E+00  0.00000E+00
    31  5.32459E-06 -9.08473E-01 -9.08473E-01  0.00000E+00  0.00000E+00  0.00000E+00  0.00000E+00
    32  5.57870E-06 -9.51510E-01 -9.51510E-01  0.00000E+00  0.00000E+00  0.00000E+00  0.00000E+00
    33  5.83915E-06 -9.95573E-01 -9.95573E-01  0.00000E+00  0.00000E+00  0.00000E+00  0.00000E+00
    34  6.10608E-06 -1.04068E+00 -1.04068E+00  0.00000E+00  0.00000E+00  0.00000E+00  0.00000E+00
    35  6.37966E-06 -1.08686E+00 -1.08686E+00  0.00000E+00  0.00000E+00  0.00000E+00  0.00000E+00
    36  6.66006E-06 -1.13413E+00 -1.13413E+00  0.00000E+00  0.00000E+00  0.00000E+00  0.00000E+00
    37  6.94745E-06 -1.18250E+00 -1.18250E+00  0.00000E+00  0.00000E+00  0.00000E+00  0.00000E+00
    38  7.24200E-06 -1.23201E+00 -1.23201E+00  0.00000E+00  0.00000E+00  0.00000E+00  0.00000E+00
    39  7.54388E-06 -1.28268E+00 -1.28268E+00  0.00000E+00  0.00000E+00  0.00000E+00  0.00000E+00
    40  7.85329E-06 -1.33451E+00 -1.33451E+00  0.00000E+00  0.00000E+00  0.00000E+00  0.00000E+00
    41  8.17041E-06 -1.38754E+00 -1.38754E+00  0.00000E+00  0.00000E+00  0.00000E+00  0.00000E+00
    42  8.49543E-06 -1.44179E+00 -1.44179E+00  0.00000E+00  0.00000E+00  0.00000E+00  0.00000E+00
    43  8.82854E-06 -1.49728E+00 -1.49728E+00  0.00000E+00  0.00000E+00  0.00000E+00  0.00000E+00
    44  9.16996E-06 -1.55402E+00 -1.55402E+00  0.00000E+00  0.00000E+00  0.00000E+00  0.00000E+00
    45  9.51989E-06 -1.61204E+00 -1.61204E+00  0.00000E+00  0.00000E+00  0.00000E+00  0.00000E+00
    46  9.87853E-06 -1.67136E+00 -1.67136E+00  0.00000E+00  0.00000E+00  0.00000E+00  0.00000E+00
    47  1.02461E-05 -1.73199E+00 -1.73199E+00  0.00000E+00  0.00000E+00  0.00000E+00  0.00000E+00
    48  1.06228E-05 -1.79395E+00 -1.79395E+00  0.00000E+00  0.00000E+00  0.00000E+00  0.00000E+00
    49  1.10090E-05 -1.85727E+00 -1.85727E+00  0.00000E+00  0.00000E+00  0.00000E+00  0.00000E+00
    50  1.14047E-05 -1.92196E+00 -1.92196E+00  0.00000E+00  0.00000E+00  0.00000E+00  0.00000E+00
    51  1.18103E-05 -1.98803E+00 -1.98803E+00  0.00000E+00  0.00000E+00  0.00000E+00  0.00000E+00
    52  1.22260E-05 -2.05550E+00 -2.05550E+00  0.00000E+00  0.00000E+00  0.00000E+00  0.00000E+00
    53  1.26521E-05 -2.12439E+00 -2.12439E+00  0.00000E+00  0.00000E+00  0.00000E+00  0.00000E+00
    54  1.30888E-05 -2.19470E+00 -2.19470E+00  0.00000E+00  0.00000E+00  0.00000E+00  0.00000E+00
    55  1.35363E-05 -2.26645E+00 -2.26645E+00  0.00000E+00  0.00000E+00  0.00000E+00  0.00000E+00
    56  1.39951E-05 -2.33964E+00 -2.33964E+00  0.00000E+00  0.00000E+00  0.00000E+00  0.00000E+00
    57  1.44652E-05 -2.41428E+00 -2.41428E+00  0.00000E+00  0.00000E+00  0.00000E+00  0.00000E+00
    58  1.49471E-05 -2.49038E+00 -2.49038E+00  0.00000E+00  0.00000E+00  0.00000E+00  0.00000E+00
    59  1.54409E-05 -2.56795E+00 -2.56795E+00  0.00000E+00  0.00000E+00  0.00000E+00  0.00000E+00
    60  1.59471E-05 -2.64697E+00 -2.64697E+00  0.00000E+00  0.00000E+00  0.00000E+00  0.00000E+00
    61  1.64659E-05 -2.72745E+00 -2.72745E+00  0.00000E+00  0.00000E+00  0.00000E+00  0.00000E+00
    62  1.69976E-05 -2.80938E+00 -2.80938E+00  0.00000E+00  0.00000E+00  0.00000E+00  0.00000E+00
    63  1.75426E-05 -2.89275E+00 -2.89275E+00  0.00000E+00  0.00000E+00  0.00000E+00  0.00000E+00
    64  1.81011E-05 -2.97755E+00 -2.97755E+00  0.00000E+00  0.00000E+00  0.00000E+00  0.00000E+00
    65  1.86736E-05 -3.06376E+00 -3.06376E+00  0.00000E+00  0.00000E+00  0.00000E+00  0.00000E+00
    66  1.92603E-05 -3.15136E+00 -3.15136E+00  0.00000E+00  0.00000E+00  0.00000E+00  0.00000E+00
    67  1.98616E-05 -3.24033E+00 -3.24033E+00  0.00000E+00  0.00000E+00  0.00000E+00  0.00000E+00
    68  2.04779E-05 -3.33064E+00 -3.33064E+00  0.00000E+00  0.00000E+00  0.00000E+00  0.00000E+00
    69  2.11096E-05 -3.42223E+00 -3.42223E+00  0.00000E+00  0.00000E+00  0.00000E+00  0.00000E+00
    70  2.17570E-05 -3.51509E+00 -3.51509E+00  0.00000E+00  0.00000E+00  0.00000E+00  0.00000E+00
    71  2.24205E-05 -3.60915E+00 -3.60915E+00  0.00000E+00  0.00000E+00  0.00000E+00  0.00000E+00
    72  2.31006E-05 -3.70435E+00 -3.70435E+00  0.00000E+00  0.00000E+00  0.00000E+00  0.00000E+00
    73  2.37976E-05 -3.80064E+00 -3.80064E+00  0.00000E+00  0.00000E+00  0.00000E+00  0.00000E+00
    74  2.45120E-05 -3.89795E+00 -3.89795E+00  0.00000E+00  0.00000E+00  0.00000E+00  0.00000E+00
    75  2.52442E-05 -3.99619E+00 -3.99619E+00  0.00000E+00  0.00000E+00  0.00000E+00  0.00000E+00
    76  2.59947E-05 -4.09528E+00 -4.09528E+00  0.00000E+00  0.00000E+00  0.00000E+00  0.00000E+00
    77  2.67638E-05 -4.19512E+00 -4.19512E+00  0.00000E+00  0.00000E+00  0.00000E+00  0.00000E+00
    78  2.75521E-05 -4.29560E+00 -4.29560E+00  0.00000E+00  0.00000E+00  0.00000E+00  0.00000E+00
    79  2.83600E-05 -4.39660E+00 -4.39660E+00  0.00000E+00  0.00000E+00  0.00000E+00  0.00000E+00
    80  2.91881E-05 -4.49800E+00 -4.49800E+00  0.00000E+00  0.00000E+00  0.00000E+00  0.00000E+00
    81  3.00368E-05 -4.59965E+00 -4.59965E+00  0.00000E+00  0.00000E+00  0.00000E+00  0.00000E+00
    82  3.09066E-05 -4.70142E+00 -4.70142E+00  0.00000E+00  0.00000E+00  0.00000E+00  0.00000E+00
    83  3.17981E-05 -4.80312E+00 -4.80312E+00  0.00000E+00  0.00000E+00  0.00000E+00  0.00000E+00
    84  3.27119E-05 -4.90460E+00 -4.90460E+00  0.00000E+00  0.00000E+00  0.00000E+00  0.00000E+00
    85  3.36484E-05 -5.00567E+00 -5.00567E+00  0.00000E+00  0.00000E+00  0.00000E+00  0.00000E+00
    86  3.46082E-05 -5.10613E+00 -5.10613E+00  0.00000E+00  0.00000E+00  0.00000E+00  0.00000E+00
    87  3.55919E-05 -5.20578E+00 -5.20578E+00  0.00000E+00  0.00000E+00  0.00000E+00  0.00000E+00
    88  3.66002E-05 -5.30440E+00 -5.30440E+00  0.00000E+00  0.00000E+00  0.00000E+00  0.00000E+00
    89  3.76336E-05 -5.40177E+00 -5.40177E+00  0.00000E+00  0.00000E+00  0.00000E+00  0.00000E+00
    90  3.86927E-05 -5.49766E+00 -5.49766E+00  0.00000E+00  0.00000E+00  0.00000E+00  0.00000E+00
    91  3.97782E-05 -5.59182E+00 -5.59182E+00  0.00000E+00  0.00000E+00  0.00000E+00  0.00000E+00
    92  4.08908E-05 -5.68403E+00 -5.68403E+00  0.00000E+00  0.00000E+00  0.00000E+00  0.00000E+00
    93  4.20310E-05 -5.77404E+00 -5.77404E+00  0.00000E+00  0.00000E+00  0.00000E+00  0.00000E+00
    94  4.31997E-05 -5.86160E+00 -5.86160E+00  0.00000E+00  0.00000E+00  0.00000E+00  0.00000E+00
    95  4.43975E-05 -5.94650E+00 -5.94650E+00  0.00000E+00  0.00000E+00  0.00000E+00  0.00000E+00
    96  4.56252E-05 -6.02849E+00 -6.02849E+00  0.00000E+00  0.00000E+00  0.00000E+00  0.00000E+00
    97  4.68834E-05 -6.10738E+00 -6.10738E+00  0.00000E+00  0.00000E+00  0.00000E+00  0.00000E+00
    98  4.81730E-05 -6.18295E+00 -6.18295E+00  0.00000E+00  0.00000E+00  0.00000E+00  0.00000E+00
    99  4.94948E-05 -6.25505E+00 -6.25505E+00  0.00000E+00  0.00000E+00  0.00000E+00  0.00000E+00
   100  5.08494E-05 -6.32351E+00 -6.32351E+00  0.00000E+00  0.00000E+00  0.00000E+00  0.00000E+00
   101  5.22378E-05 -6.38821E+00 -6.38821E+00  0.00000E+00  0.00000E+00  0.00000E+00  0.00000E+00
   102  5.36608E-05 -6.44907E+00 -6.44907E+00  0.00000E+00  0.00000E+00  0.00000E+00  0.00000E+00
   103  5.51193E-05 -6.50601E+00 -6.50601E+00  0.00000E+00  0.00000E+00  0.00000E+00  0.00000E+00
   104  5.66141E-05 -6.55903E+00 -6.55903E+00  0.00000E+00  0.00000E+00  0.00000E+00  0.00000E+00
   105  5.81461E-05 -6.60812E+00 -6.60812E+00  0.00000E+00  0.00000E+00  0.00000E+00  0.00000E+00
   106  5.97163E-05 -6.65333E+00 -6.65333E+00  0.00000E+00  0.00000E+00  0.00000E+00  0.00000E+00
   107  6.13257E-05 -6.69474E+00 -6.69474E+00  0.00000E+00  0.00000E+00  0.00000E+00  0.00000E+00
   108  6.29751E-05 -6.73246E+00 -6.73246E+00  0.00000E+00  0.00000E+00  0.00000E+00  0.00000E+00
   109  6.46656E-05 -6.76664E+00 -6.76664E+00  0.00000E+00  0.00000E+00  0.00000E+00  0.00000E+00
   110  6.63983E-05 -6.79742E+00 -6.79742E+00  0.00000E+00  0.00000E+00  0.00000E+00  0.00000E+00
   111  6.81741E-05 -6.82499E+00 -6.82499E+00  0.00000E+00  0.00000E+00  0.00000E+00  0.00000E+00
   112  6.99942E-05 -6.84954E+00 -6.84954E+00  0.00000E+00  0.00000E+00  0.00000E+00  0.00000E+00
   113  7.18596E-05 -6.87129E+00 -6.87129E+00  0.00000E+00  0.00000E+00  0.00000E+00  0.00000E+00
   114  7.37715E-05 -6.89044E+00 -6.89044E+00  0.00000E+00  0.00000E+00  0.00000E+00  0.00000E+00
   115  7.57310E-05 -6.90722E+00 -6.90722E+00  0.00000E+00  0.00000E+00  0.00000E+00  0.00000E+00
   116  7.77394E-05 -6.92182E+00 -6.92182E+00  0.00000E+00  0.00000E+00  0.00000E+00  0.00000E+00
   117  7.97978E-05 -6.93447E+00 -6.93447E+00  0.00000E+00  0.00000E+00  0.00000E+00  0.00000E+00
   118  8.19075E-05 -6.94536E+00 -6.94536E+00  0.00000E+00  0.00000E+00  0.00000E+00  0.00000E+00
   119  8.40697E-05 -6.95468E+00 -6.95468E+00  0.00000E+00  0.00000E+00  0.00000E+00  0.00000E+00
   120  8.62859E-05 -6.96261E+00 -6.96261E+00  0.00000E+00  0.00000E+00  0.00000E+00  0.00000E+00
   121  8.85572E-05 -6.96933E+00 -6.96933E+00  0.00000E+00  0.00000E+00  0.00000E+00  0.00000E+00
   122  9.08851E-05 -6.97498E+00 -6.97498E+00  0.00000E+00  0.00000E+00  0.00000E+00  0.00000E+00
   123  9.32711E-05 -6.97970E+00 -6.97970E+00  0.00000E+00  0.00000E+00  0.00000E+00  0.00000E+00
   124  9.57164E-05 -6.98363E+00 -6.98363E+00  0.00000E+00  0.00000E+00  0.00000E+00  0.00000E+00
   125  9.82228E-05 -6.98688E+00 -6.98688E+00  0.00000E+00  0.00000E+00  0.00000E+00  0.00000E+00
   126  1.00792E-04 -6.98955E+00 -6.98955E+00  0.00000E+00  0.00000E+00  0.00000E+00  0.00000E+00
   127  1.03424E-04 -6.99172E+00 -6.99172E+00  0.00000E+00  0.00000E+00  0.00000E+00  0.00000E+00
   128  1.06123E-04 -6.99349E+00 -6.99349E+00  0.00000E+00  0.00000E+00  0.00000E+00  0.00000E+00
   129  1.08888E-04 -6.99491E+00 -6.99491E+00  0.00000E+00  0.00000E+00  0.00000E+00  0.00000E+00
   130  1.11723E-04 -6.99605E+00 -6.99605E+00  0.00000E+00  0.00000E+00  0.00000E+00  0.00000E+00
   131  1.14628E-04 -6.99695E+00 -6.99695E+00  0.00000E+00  0.00000E+00  0.00000E+00  0.00000E+00
   132  1.17605E-04 -6.99766E+00 -6.99766E+00  0.00000E+00  0.00000E+00  0.00000E+00  0.00000E+00
   133  1.20657E-04 -6.99822E+00 -6.99822E+00  0.00000E+00  0.00000E+00  0.00000E+00  0.00000E+00
   134  1.23785E-04 -6.99866E+00 -6.99866E+00  0.00000E+00  0.00000E+00  0.00000E+00  0.00000E+00
   135  1.26990E-04 -6.99900E+00 -6.99900E+00  0.00000E+00  0.00000E+00  0.00000E+00  0.00000E+00
   136  1.30276E-04 -6.99925E+00 -6.99925E+00  0.00000E+00  0.00000E+00  0.00000E+00  0.00000E+00
   137  1.33643E-04 -6.99945E+00 -6.99945E+00  0.00000E+00  0.00000E+00  0.00000E+00  0.00000E+00
   138  1.37095E-04 -6.99960E+00 -6.99960E+00  0.00000E+00  0.00000E+00  0.00000E+00  0.00000E+00
   139  1.40632E-04 -6.99971E+00 -6.99971E+00  0.00000E+00  0.00000E+00  0.00000E+00  0.00000E+00
   140  1.44257E-04 -6.99979E+00 -6.99979E+00  0.00000E+00  0.00000E+00  0.00000E+00  0.00000E+00
   141  1.47973E-04 -6.99985E+00 -6.99985E+00  0.00000E+00  0.00000E+00  0.00000E+00  0.00000E+00
   142  1.51781E-04 -6.99989E+00 -6.99989E+00  0.00000E+00  0.00000E+00  0.00000E+00  0.00000E+00
   143  1.55685E-04 -6.99993E+00 -6.99993E+00  0.00000E+00  0.00000E+00  0.00000E+00  0.00000E+00
   144  1.59685E-04 -6.99995E+00 -6.99995E+00  0.00000E+00  0.00000E+00  0.00000E+00  0.00000E+00
   145  1.63785E-04 -6.99996E+00 -6.99996E+00  0.00000E+00  0.00000E+00  0.00000E+00  0.00000E+00
   146  1.67987E-04 -6.99998E+00 -6.99998E+00  0.00000E+00  0.00000E+00  0.00000E+00  0.00000E+00
   147  1.72294E-04 -6.99998E+00 -6.99998E+00  0.00000E+00  0.00000E+00  0.00000E+00  0.00000E+00
   148  1.76709E-04 -6.99999E+00 -6.99999E+00  0.00000E+00  0.00000E+00  0.00000E+00  0.00000E+00
   149  1.81233E-04 -6.99999E+00 -6.99999E+00  0.00000E+00  0.00000E+00  0.00000E+00  0.00000E+00
   150  1.85870E-04 -7.00000E+00 -7.00000E+00  0.00000E+00  0.00000E+00  0.00000E+00  0.00000E+00
   151  1.90623E-04 -7.00000E+00 -7.00000E+00  0.00000E+00  0.00000E+00  0.00000E+00  0.00000E+00
   152  1.95493E-04 -7.00000E+00 -7.00000E+00  0.00000E+00  0.00000E+00  0.00000E+00  0.00000E+00
   153  2.00486E-04 -7.00000E+00 -7.00000E+00  0.00000E+00  0.00000E+00  0.00000E+00  0.00000E+00
   154  2.05602E-04 -7.00000E+00 -7.00000E+00  0.00000E+00  0.00000E+00  0.00000E+00  0.00000E+00
   155  2.10847E-04 -7.00000E+00 -7.00000E+00  0.00000E+00  0.00000E+00  0.00000E+00  0.00000E+00
   156  2.16221E-04 -7.00000E+00 -7.00000E+00  0.00000E+00  0.00000E+00  0.00000E+00  0.00000E+00
   157  2.21730E-04 -7.00000E+00 -7.00000E+00  0.00000E+00  0.00000E+00  0.00000E+00  0.00000E+00
   158  2.27376E-04 -7.00000E+00 -7.00000E+00  0.00000E+00  0.00000E+00  0.00000E+00  0.00000E+00
   159  2.33163E-04 -7.00000E+00 -7.00000E+00  0.00000E+00  0.00000E+00  0.00000E+00  0.00000E+00
   160  2.39094E-04 -7.00000E+00 -7.00000E+00  0.00000E+00  0.00000E+00  0.00000E+00  0.00000E+00
   161  2.45172E-04 -7.00000E+00 -7.00000E+00  0.00000E+00  0.00000E+00  0.00000E+00  0.00000E+00
   162  2.51402E-04 -7.00000E+00 -7.00000E+00  0.00000E+00  0.00000E+00  0.00000E+00  0.00000E+00
   163  2.57788E-04 -7.00000E+00 -7.00000E+00  0.00000E+00  0.00000E+00  0.00000E+00  0.00000E+00
   164  2.64332E-04 -7.00000E+00 -7.00000E+00  0.00000E+00  0.00000E+00  0.00000E+00  0.00000E+00
   165  2.71040E-04 -7.00000E+00 -7.00000E+00  0.00000E+00  0.00000E+00  0.00000E+00  0.00000E+00
   166  2.77914E-04 -7.00000E+00 -7.00000E+00  0.00000E+00  0.00000E+00  0.00000E+00  0.00000E+00
   167  2.84960E-04 -7.00000E+00 -7.00000E+00  0.00000E+00  0.00000E+00  0.00000E+00  0.00000E+00
   168  2.92181E-04 -7.00000E+00 -7.00000E+00  0.00000E+00  0.00000E+00  0.00000E+00  0.00000E+00
   169  2.99583E-04 -7.00000E+00 -7.00000E+00  0.00000E+00  0.00000E+00  0.00000E+00  0.00000E+00
   170  3.07168E-04 -7.00000E+00 -7.00000E+00  0.00000E+00  0.00000E+00  0.00000E+00  0.00000E+00
   171  3.14943E-04 -7.00000E+00 -7.00000E+00  0.00000E+00  0.00000E+00  0.00000E+00  0.00000E+00
   172  3.22912E-04 -7.00000E+00 -7.00000E+00  0.00000E+00  0.00000E+00  0.00000E+00  0.00000E+00
   173  3.31079E-04 -7.00000E+00 -7.00000E+00  0.00000E+00  0.00000E+00  0.00000E+00  0.00000E+00
   174  3.39449E-04 -7.00000E+00 -7.00000E+00  0.00000E+00  0.00000E+00  0.00000E+00  0.00000E+00
   175  3.39449E-04 -7.00000E+00 -7.00000E+00  0.00000E+00  0.00000E+00  0.00000E+00  0.00000E+00
   176  6.78898E-04 -7.00000E+00 -7.00000E+00  0.00000E+00  0.00000E+00  0.00000E+00  0.00000E+00
   177  1.35780E-03 -7.00000E+00 -7.00000E+00  0.00000E+00  0.00000E+00  0.00000E+00  0.00000E+00
   178  2.71559E-03 -7.00000E+00 -7.00000E+00  0.00000E+00  0.00000E+00  0.00000E+00  0.00000E+00
   179  5.43118E-03 -7.00000E+00 -7.00000E+00  0.00000E+00  0.00000E+00  0.00000E+00  0.00000E+00
   180  1.08624E-02 -7.00000E+00 -7.00000E+00  0.00000E+00  0.00000E+00  0.00000E+00  0.00000E+00
   181  2.17247E-02 -7.00000E+00 -7.00000E+00  0.00000E+00  0.00000E+00  0.00000E+00  0.00000E+00
   182  4.34495E-02 -7.00000E+00 -7.00000E+00  0.00000E+00  0.00000E+00  0.00000E+00  0.00000E+00
   183  8.68989E-02 -7.00000E+00 -7.00000E+00  0.00000E+00  0.00000E+00  0.00000E+00  0.00000E+00
   184  1.73798E-01 -7.00000E+00 -7.00000E+00  0.00000E+00  0.00000E+00  0.00000E+00  0.00000E+00
   185  3.47596E-01 -7.00000E+00 -7.00000E+00  0.00000E+00  0.00000E+00  0.00000E+00  0.00000E+00
   186  6.95191E-01 -7.00000E+00 -7.00000E+00  0.00000E+00  0.00000E+00  0.00000E+00  0.00000E+00
   187  1.39038E+00 -7.00000E+00 -7.00000E+00  0.00000E+00  0.00000E+00  0.00000E+00  0.00000E+00
   188  2.78077E+00 -7.00000E+00 -7.00000E+00  0.00000E+00  0.00000E+00  0.00000E+00  0.00000E+00
   189  5.56153E+00 -7.00000E+00 -7.00000E+00  0.00000E+00  0.00000E+00  0.00000E+00  0.00000E+00
   190  1.11231E+01 -7.00000E+00 -7.00000E+00  0.00000E+00  0.00000E+00  0.00000E+00  0.00000E+00
   191  2.22461E+01 -7.00000E+00 -7.00000E+00  0.00000E+00  0.00000E+00  0.00000E+00  0.00000E+00
   192  4.44923E+01 -7.00000E+00 -7.00000E+00  0.00000E+00  0.00000E+00  0.00000E+00  0.00000E+00
   193  8.89845E+01 -7.00000E+00 -7.00000E+00  0.00000E+00  0.00000E+00  0.00000E+00  0.00000E+00
   194  1.77969E+02 -7.00000E+00 -7.00000E+00  0.00000E+00  0.00000E+00  0.00000E+00  0.00000E+00
   195  3.55938E+02 -7.00000E+00 -7.00000E+00  0.00000E+00  0.00000E+00  0.00000E+00  0.00000E+00
   196  7.11876E+02 -7.00000E+00 -7.00000E+00  0.00000E+00  0.00000E+00  0.00000E+00  0.00000E+00
   197  1.42375E+03 -7.00000E+00 -7.00000E+00  0.00000E+00  0.00000E+00  0.00000E+00  0.00000E+00
   198  2.84750E+03 -7.00000E+00 -7.00000E+00  0.00000E+00  0.00000E+00  0.00000E+00  0.00000E+00
   199  5.69501E+03 -7.00000E+00 -7.00000E+00  0.00000E+00  0.00000E+00  0.00000E+00  0.00000E+00
   200  1.13900E+04 -7.00000E+00 -7.00000E+00  0.00000E+00  0.00000E+00  0.00000E+00  0.00000E+00
