 #  Scattering field.
 #  All quantities in atomic units (a.u.), unless otherwise indicated.
 #  Z =   8, NELEC =   8,   projectile: electron
 #  Kinetic energy = 1.35973E+05 a.u. = 3.70000E+06 eV
 #
 #   i       r           r*V         r*Vst        r*Vex       r*Vpol       r*Wabs        rho_e
 #------------------------------------------------------------------------------------------------
     1  0.00000E+00  0.00000E+00  0.00000E+00  0.00000E+00  0.00000E+00  0.00000E+00  0.00000E+00
     2  1.26482E-07 -2.40485E-02 -2.40485E-02  0.00000E+00  0.00000E+00  0.00000E+00  0.00000E+00
     3  2.56105E-07 -4.86942E-02 -4.86942E-02  0.00000E+00  0.00000E+00  0.00000E+00  0.00000E+00
     4  3.88947E-07 -7.39511E-02 -7.39511E-02  0.00000E+00  0.00000E+00  0.00000E+00  0.00000E+00
     5  5.25086E-07 -9.98341E-02 -9.98341E-02  0.00000E+00  0.00000E+00  0.00000E+00  0.00000E+00
     6  6.64605E-07 -1.26358E-01 -1.26358E-01  0.00000E+00  0.00000E+00  0.00000E+00  0.00000E+00
     7  8.07588E-07 -1.53539E-01 -1.53539E-01  0.00000E+00  0.00000E+00  0.00000E+00  0.00000E+00
     8  9.54120E-07 -1.81393E-01 -1.81393E-01  0.00000E+00  0.00000E+00  0.00000E+00  0.00000E+00
     9  1.10429E-06 -2.09935E-01 -2.09935E-01  0.00000E+00  0.00000E+00  0.00000E+00  0.00000E+00
    10  1.25819E-06 -2.39182E-01 -2.39182E-01  0.00000E+00  0.00000E+00  0.00000E+00  0.00000E+00
    11  1.41590E-06 -2.69152E-01 -2.69152E-01  0.00000E+00  0.00000E+00  0.00000E+00  0.00000E+00
    12  1.57754E-06 -2.99861E-01 -2.99861E-01  0.00000E+00  0.00000E+00  0.00000E+00  0.00000E+00
    13  1.74318E-06 -3.31327E-01 -3.31327E-01  0.00000E+00  0.00000E+00  0.00000E+00  0.00000E+00
    14  1.91294E-06 -3.63567E-01 -3.63567E-01  0.00000E+00  0.00000E+00  0.00000E+00  0.00000E+00
    15  2.08691E-06 -3.96601E-01 -3.96601E-01  0.00000E+00  0.00000E+00  0.00000E+00  0.00000E+00
    16  2.26520E-06 -4.30446E-01 -4.30446E-01  0.00000E+00  0.00000E+00  0.00000E+00  0.00000E+00
    17  2.44792E-06 -4.65122E-01 -4.65122E-01  0.00000E+00  0.00000E+00  0.00000E+00  0.00000E+00
    18  2.63517E-06 -5.00647E-01 -5.00647E-01  0.00000E+00  0.00000E+00  0.00000E+00  0.00000E+00
    19  2.82707E-06 -5.37043E-01 -5.37043E-01  0.00000E+00  0.00000E+00  0.00000E+00  0.00000E+00
    20  3.02374E-06 -5.74328E-01 -5.74328E-01  0.00000E+00  0.00000E+00  0.00000E+00  0.00000E+00
    21  3.22529E-06 -6.12523E-01 -6.12523E-01  0.00000E+00  0.00000E+00  0.00000E+00  0.00000E+00
    22  3.43184E-06 -6.51649E-01 -6.51649E-01  0.00000E+00  0.00000E+00  0.00000E+00  0.00000E+00
    23  3.64352E-06 -6.91727E-01 -6.91727E-01  0.00000E+00  0.00000E+00  0.00000E+00  0.00000E+00
    24  3.86045E-06 -7.32778E-01 -7.32778E-01  0.00000E+00  0.00000E+00  0.00000E+00  0.00000E+00
    25  4.08277E-06 -7.74824E-01 -7.74824E-01  0.00000E+00  0.00000E+00  0.00000E+00  0.00000E+00
    26  4.31060E-06 -8.17887E-01 -8.17887E-01  0.00000E+00  0.00000E+00  0.00000E+00  0.00000E+00
    27  4.54410E-06 -8.61989E-01 -8.61989E-01  0.00000E+00  0.00000E+00  0.00000E+00  0.00000E+00
    28  4.78339E-06 -9.07154E-01 -9.07154E-01  0.00000E+00  0.00000E+00  0.00000E+00  0.00000E+00
    29  5.02862E-06 -9.53403E-01 -9.53403E-01  0.00000E+00  0.00000E+00  0.00000E+00  0.00000E+00
    30  5.27993E-06 -1.00076E+00 -1.00076E+00  0.00000E+00  0.00000E+00  0.00000E+00  0.00000E+00
    31  5.53749E-06 -1.04925E+00 -1.04925E+00  0.00000E+00  0.00000E+00  0.00000E+00  0.00000E+00
    32  5.80144E-06 -1.09889E+00 -1.09889E+00  0.00000E+00  0.00000E+00  0.00000E+00  0.00000E+00
    33  6.07194E-06 -1.14972E+00 -1.14972E+00  0.00000E+00  0.00000E+00  0.00000E+00  0.00000E+00
    34  6.34916E-06 -1.20174E+00 -1.20174E+00  0.00000E+00  0.00000E+00  0.00000E+00  0.00000E+00
    35  6.63326E-06 -1.25499E+00 -1.25499E+00  0.00000E+00  0.00000E+00  0.00000E+00  0.00000E+00
    36  6.92442E-06 -1.30950E+00 -1.30950E+00  0.00000E+00  0.00000E+00  0.00000E+00  0.00000E+00
    37  7.22280E-06 -1.36528E+00 -1.36528E+00  0.00000E+00  0.00000E+00  0.00000E+00  0.00000E+00
    38  7.52858E-06 -1.42236E+00 -1.42236E+00  0.00000E+00  0.00000E+00  0.00000E+00  0.00000E+00
    39  7.84196E-06 -1.48076E+00 -1.48076E+00  0.00000E+00  0.00000E+00  0.00000E+00  0.00000E+00
    40  8.16312E-06 -1.54051E+00 -1.54051E+00  0.00000E+00  0.00000E+00  0.00000E+00  0.00000E+00
    41  8.49225E-06 -1.60163E+00 -1.60163E+00  0.00000E+00  0.00000E+00  0.00000E+00  0.00000E+00
    42  8.82955E-06 -1.66415E+00 -1.66415E+00  0.00000E+00  0.00000E+00  0.00000E+00  0.00000E+00
    43  9.17523E-06 -1.72809E+00 -1.72809E+00  0.00000E+00  0.00000E+00  0.00000E+00  0.00000E+00
    44  9.52948E-06 -1.79347E+00 -1.79347E+00  0.00000E+00  0.00000E+00  0.00000E+00  0.00000E+00
    45  9.89253E-06 -1.86032E+00 -1.86032E+00  0.00000E+00  0.00000E+00  0.00000E+00  0.00000E+00
    46  1.02646E-05 -1.92866E+00 -1.92866E+00  0.00000E+00  0.00000E+00  0.00000E+00  0.00000E+00
    47  1.06459E-05 -1.99850E+00 -1.99850E+00  0.00000E+00  0.00000E+00  0.00000E+00  0.00000E+00
    48  1.10367E-05 -2.06988E+00 -2.06988E+00  0.00000E+00  0.00000E+00  0.00000E+00  0.00000E+00
    49  1.14371E-05 -2.14280E+00 -2.14280E+00  0.00000E+00  0.00000E+00  0.00000E+00  0.00000E+00
    50  1.18475E-05 -2.21730E+00 -2.21730E+00  0.00000E+00  0.00000E+00  0.00000E+00  0.00000E+00
    51  1.22681E-05 -2.29338E+00 -2.29338E+00  0.00000E+00  0.00000E+00  0.00000E+00  0.00000E+00
    52  1.26992E-05 -2.37107E+00 -2.37107E+00  0.00000E+00  0.00000E+00  0.00000E+00  0.00000E+00
    53  1.31409E-05 -2.45038E+00 -2.45038E+00  0.00000E+00  0.00000E+00  0.00000E+00  0.00000E+00
    54  1.35936E-05 -2.53132E+00 -2.53132E+00  0.00000E+00  0.00000E+00  0.00000E+00  0.00000E+00
    55  1.40575E-05 -2.61391E+00 -2.61391E+00  0.00000E+00  0.00000E+00  0.00000E+00  0.00000E+00
    56  1.45330E-05 -2.69815E+00 -2.69815E+00  0.00000E+00  0.00000E+00  0.00000E+00  0.00000E+00
    57  1.50203E-05 -2.78406E+00 -2.78406E+00  0.00000E+00  0.00000E+00  0.00000E+00  0.00000E+00
    58  1.55196E-05 -2.87164E+00 -2.87164E+00  0.00000E+00  0.00000E+00  0.00000E+00  0.00000E+00
    59  1.60314E-05 -2.96088E+00 -2.96088E+00  0.00000E+00  0.00000E+00  0.00000E+00  0.00000E+00
    60  1.65558E-05 -3.05180E+00 -3.05180E+00  0.00000E+00  0.00000E+00  0.00000E+00  0.00000E+00
    61  1.70933E-05 -3.14439E+00 -3.14439E+00  0.00000E+00  0.00000E+00  0.00000E+00  0.00000E+00
    62  1.76441E-05 -3.23864E+00 -3.23864E+00  0.00000E+00  0.00000E+00  0.00000E+00  0.00000E+00
    63  1.82086E-05 -3.33453E+00 -3.33453E+00  0.00000E+00  0.00000E+00  0.00000E+00  0.00000E+00
    64  1.87871E-05 -3.43207E+00 -3.43207E+00  0.00000E+00  0.00000E+00  0.00000E+00  0.00000E+00
    65  1.93800E-05 -3.53121E+00 -3.53121E+00  0.00000E+00  0.00000E+00  0.00000E+00  0.00000E+00
    66  1.99876E-05 -3.63195E+00 -3.63195E+00  0.00000E+00  0.00000E+00  0.00000E+00  0.00000E+00
    67  2.06102E-05 -3.73424E+00 -3.73424E+00  0.00000E+00  0.00000E+00  0.00000E+00  0.00000E+00
    68  2.12484E-05 -3.83806E+00 -3.83806E+00  0.00000E+00  0.00000E+00  0.00000E+00  0.00000E+00
    69  2.19023E-05 -3.94335E+00 -3.94335E+00  0.00000E+00  0.00000E+00  0.00000E+00  0.00000E+00
    70  2.25725E-05 -4.05008E+00 -4.05008E+00  0.00000E+00  0.00000E+00  0.00000E+00  0.00000E+00
    71  2.32594E-05 -4.15817E+00 -4.15817E+00  0.00000E+00  0.00000E+00  0.00000E+00  0.00000E+00
    72  2.39633E-05 -4.26758E+00 -4.26758E+00  0.00000E+00  0.00000E+00  0.00000E+00  0.00000E+00
    73  2.46846E-05 -4.37821E+00 -4.37821E+00  0.00000E+00  0.00000E+00  0.00000E+00  0.00000E+00
    74  2.54239E-05 -4.49000E+00 -4.49000E+00  0.00000E+00  0.00000E+00  0.00000E+00  0.00000E+00
    75  2.61815E-05 -4.60285E+00 -4.60285E+00  0.00000E+00  0.00000E+00  0.00000E+00  0.00000E+00
    76  2.69580E-05 -4.71665E+00 -4.71665E+00  0.00000E+00  0.00000E+00  0.00000E+00  0.00000E+00
    77  2.77537E-05 -4.83129E+00 -4.83129E+00  0.00000E+00  0.00000E+00  0.00000E+00  0.00000E+00
    78  2.85691E-05 -4.94665E+00 -4.94665E+00  0.00000E+00  0.00000E+00  0.00000E+00  0.00000E+00
    79  2.94048E-05 -5.06258E+00 -5.06258E+00  0.00000E+00  0.00000E+00  0.00000E+00  0.00000E+00
    80  3.02613E-05 -5.17895E+00 -5.17895E+00  0.00000E+00  0.00000E+00  0.00000E+00  0.00000E+00
    81  3.11390E-05 -5.29558E+00 -5.29558E+00  0.00000E+00  0.00000E+00  0.00000E+00  0.00000E+00
    82  3.20385E-05 -5.41231E+00 -5.41231E+00  0.00000E+00  0.00000E+00  0.00000E+00  0.00000E+00
    83  3.29603E-05 -5.52894E+00 -5.52894E+00  0.00000E+00  0.00000E+00  0.00000E+00  0.00000E+00
    84  3.39050E-05 -5.64527E+00 -5.64527E+00  0.00000E+00  0.00000E+00  0.00000E+00  0.00000E+00
    85  3.48732E-05 -5.76109E+00 -5.76109E+00  0.00000E+00  0.00000E+00  0.00000E+00  0.00000E+00
    86  3.58654E-05 -5.87616E+00 -5.87616E+00  0.00000E+00  0.00000E+00  0.00000E+00  0.00000E+00
    87  3.68822E-05 -5.99025E+00 -5.99025E+00  0.00000E+00  0.00000E+00  0.00000E+00  0.00000E+00
    88  3.79243E-05 -6.10311E+00 -6.10311E+00  0.00000E+00  0.00000E+00  0.00000E+00  0.00000E+00
    89  3.89922E-05 -6.21446E+00 -6.21446E+00  0.00000E+00  0.00000E+00  0.00000E+00  0.00000E+00
    90  4.00867E-05 -6.32405E+00 -6.32405E+00  0.00000E+00  0.00000E+00  0.00000E+00  0.00000E+00
    91  4.12083E-05 -6.43158E+00 -6.43158E+00  0.00000E+00  0.00000E+00  0.00000E+00  0.00000E+00
    92  4.23578E-05 -6.53679E+00 -6.53679E+00  0.00000E+00  0.00000E+00  0.00000E+00  0.00000E+00
    93  4.35358E-05 -6.63939E+00 -6.63939E+00  0.00000E+00  0.00000E+00  0.00000E+00  0.00000E+00
    94  4.47430E-05 -6.73909E+00 -6.73909E+00  0.00000E+00  0.00000E+00  0.00000E+00  0.00000E+00
    95  4.59802E-05 -6.83562E+00 -6.83562E+00  0.00000E+00  0.00000E+00  0.00000E+00  0.00000E+00
    96  4.72482E-05 -6.92873E+00 -6.92873E+00  0.00000E+00  0.00000E+00  0.00000E+00  0.00000E+00
    97  4.85476E-05 -7.01816E+00 -7.01816E+00  0.00000E+00  0.00000E+00  0.00000E+00  0.00000E+00
    98  4.98792E-05 -7.10368E+00 -7.10368E+00  0.00000E+00  0.00000E+00  0.00000E+00  0.00000E+00
    99  5.12439E-05 -7.18510E+00 -7.18510E+00  0.00000E+00  0.00000E+00  0.00000E+00  0.00000E+00
   100  5.26425E-05 -7.26224E+00 -7.26224E+00  0.00000E+00  0.00000E+00  0.00000E+00  0.00000E+00
   101  5.40758E-05 -7.33496E+00 -7.33496E+00  0.00000E+00  0.00000E+00  0.00000E+00  0.00000E+00
   102  5.55447E-05 -7.40317E+00 -7.40317E+00  0.00000E+00  0.00000E+00  0.00000E+00  0.00000E+00
   103  5.70501E-05 -7.46680E+00 -7.46680E+00  0.00000E+00  0.00000E+00  0.00000E+00  0.00000E+00
   104  5.85928E-05 -7.52585E+00 -7.52585E+00  0.00000E+00  0.00000E+00  0.00000E+00  0.00000E+00
   105  6.01738E-05 -7.58034E+00 -7.58034E+00  0.00000E+00  0.00000E+00  0.00000E+00  0.00000E+00
   106  6.17941E-05 -7.63032E+00 -7.63032E+00  0.00000E+00  0.00000E+00  0.00000E+00  0.00000E+00
   107  6.34546E-05 -7.67593E+00 -7.67593E+00  0.00000E+00  0.00000E+00  0.00000E+00  0.00000E+00
   108  6.51563E-05 -7.71729E+00 -7.71729E+00  0.00000E+00  0.00000E+00  0.00000E+00  0.00000E+00
   109  6.69003E-05 -7.75458E+00 -7.75458E+00  0.00000E+00  0.00000E+00  0.00000E+00  0.00000E+00
   110  6.86876E-05 -7.78801E+00 -7.78801E+00  0.00000E+00  0.00000E+00  0.00000E+00  0.00000E+00
   111  7.05192E-05 -7.81780E+00 -7.81780E+00  0.00000E+00  0.00000E+00  0.00000E+00  0.00000E+00
   112  7.23963E-05 -7.84420E+00 -7.84420E+00  0.00000E+00  0.00000E+00  0.00000E+00  0.00000E+00
   113  7.43200E-05 -7.86745E+00 -7.86745E+00  0.00000E+00  0.00000E+00  0.00000E+00  0.00000E+00
   114  7.62914E-05 -7.88781E+00 -7.88781E+00  0.00000E+00  0.00000E+00  0.00000E+00  0.00000E+00
   115  7.83118E-05 -7.90554E+00 -7.90554E+00  0.00000E+00  0.00000E+00  0.00000E+00  0.00000E+00
   116  8.03823E-05 -7.92088E+00 -7.92088E+00  0.00000E+00  0.00000E+00  0.00000E+00  0.00000E+00
   117  8.25043E-05 -7.93408E+00 -7.93408E+00  0.00000E+00  0.00000E+00  0.00000E+00  0.00000E+00
   118  8.46789E-05 -7.94538E+00 -7.94538E+00  0.00000E+00  0.00000E+00  0.00000E+00  0.00000E+00
   119  8.69075E-05 -7.95498E+00 -7.95498E+00  0.00000E+00  0.00000E+00  0.00000E+00  0.00000E+00
   120  8.91914E-05 -7.96311E+00 -7.96311E+00  0.00000E+00  0.00000E+00  0.00000E+00  0.00000E+00
   121  9.15320E-05 -7.96993E+00 -7.96993E+00  0.00000E+00  0.00000E+00  0.00000E+00  0.00000E+00
   122  9.39307E-05 -7.97564E+00 -7.97564E+00  0.00000E+00  0.00000E+00  0.00000E+00  0.00000E+00
   123  9.63890E-05 -7.98038E+00 -7.98038E+00  0.00000E+00  0.00000E+00  0.00000E+00  0.00000E+00
   124  9.89083E-05 -7.98429E+00 -7.98429E+00  0.00000E+00  0.00000E+00  0.00000E+00  0.00000E+00
   125  1.01490E-04 -7.98750E+00 -7.98750E+00  0.00000E+00  0.00000E+00  0.00000E+00  0.00000E+00
   126  1.04136E-04 -7.99011E+00 -7.99011E+00  0.00000E+00  0.00000E+00  0.00000E+00  0.00000E+00
   127  1.06848E-04 -7.99223E+00 -7.99223E+00  0.00000E+00  0.00000E+00  0.00000E+00  0.00000E+00
   128  1.09627E-04 -7.99393E+00 -7.99393E+00  0.00000E+00  0.00000E+00  0.00000E+00  0.00000E+00
   129  1.12475E-04 -7.99529E+00 -7.99529E+00  0.00000E+00  0.00000E+00  0.00000E+00  0.00000E+00
   130  1.15393E-04 -7.99638E+00 -7.99638E+00  0.00000E+00  0.00000E+00  0.00000E+00  0.00000E+00
   131  1.18384E-04 -7.99723E+00 -7.99723E+00  0.00000E+00  0.00000E+00  0.00000E+00  0.00000E+00
   132  1.21449E-04 -7.99789E+00 -7.99789E+00  0.00000E+00  0.00000E+00  0.00000E+00  0.00000E+00
   133  1.24591E-04 -7.99841E+00 -7.99841E+00  0.00000E+00  0.00000E+00  0.00000E+00  0.00000E+00
   134  1.27810E-04 -7.99881E+00 -7.99881E+00  0.00000E+00  0.00000E+00  0.00000E+00  0.00000E+00
   135  1.31110E-04 -7.99912E+00 -7.99912E+00  0.00000E+00  0.00000E+00  0.00000E+00  0.00000E+00
   136  1.34491E-04 -7.99935E+00 -7.99935E+00  0.00000E+00  0.00000E+00  0.00000E+00  0.00000E+00
   137  1.37956E-04 -7.99953E+00 -7.99953E+00  0.00000E+00  0.00000E+00  0.00000E+00  0.00000E+00
   138  1.41507E-04 -7.99966E+00 -7.99966E+00  0.00000E+00  0.00000E+00  0.00000E+00  0.00000E+00
   139  1.45146E-04 -7.99975E+00 -7.99975E+00  0.00000E+00  0.00000E+00  0.00000E+00  0.00000E+00
   140  1.48876E-04 -7.99982E+00 -7.99982E+00  0.00000E+00  0.00000E+00  0.00000E+00  0.00000E+00
   141  1.52698E-04 -7.99988E+00 -7.99988E+00  0.00000E+00  0.00000E+00  0.00000E+00  0.00000E+00
   142  1.56615E-04 -7.99991E+00 -7.99991E+00  0.00000E+00  0.00000E+00  0.00000E+00  0.00000E+00
   143  1.60630E-04 -7.99994E+00 -7.99994E+00  0.00000E+00  0.00000E+00  0.00000E+00  0.00000E+00
   144  1.64744E-04 -7.99996E+00 -7.99996E+00  0.00000E+00  0.00000E+00  0.00000E+00  0.00000E+00
   145  1.68960E-04 -7.99997E+00 -7.99997E+00  0.00000E+00  0.00000E+00  0.00000E+00  0.00000E+00
   146  1.73281E-04 -7.99998E+00 -7.99998E+00  0.00000E+00  0.00000E+00  0.00000E+00  0.00000E+00
   147  1.77709E-04 -7.99999E+00 -7.99999E+00  0.00000E+00  0.00000E+00  0.00000E+00  0.00000E+00
   148  1.82247E-04 -7.99999E+00 -7.99999E+00  0.00000E+00  0.00000E+00  0.00000E+00  0.00000E+00
   149  1.86898E-04 -7.99999E+00 -7.99999E+00  0.00000E+00  0.00000E+00  0.00000E+00  0.00000E+00
   150  1.91664E-04 -8.00000E+00 -8.00000E+00  0.00000E+00  0.00000E+00  0.00000E+00  0.00000E+00
   151  1.96548E-04 -8.00000E+00 -8.00000E+00  0.00000E+00  0.00000E+00  0.00000E+00  0.00000E+00
   152  2.01554E-04 -8.00000E+00 -8.00000E+00  0.00000E+00  0.00000E+00  0.00000E+00  0.00000E+00
   153  2.06684E-04 -8.00000E+00 -8.00000E+00  0.00000E+00  0.00000E+00  0.00000E+00  0.00000E+00
   154  2.11941E-04 -8.00000E+00 -8.00000E+00  0.00000E+00  0.00000E+00  0.00000E+00  0.00000E+00
   155  2.17329E-04 -8.00000E+00 -8.00000E+00  0.00000E+00  0.00000E+00  0.00000E+00  0.00000E+00
   156  2.22850E-04 -8.00000E+00 -8.00000E+00  0.00000E+00  0.00000E+00  0.00000E+00  0.00000E+00
   157  2.28509E-04 -8.00000E+00 -8.00000E+00  0.00000E+00  0.00000E+00  0.00000E+00  0.00000E+00
   158  2.34308E-04 -8.00000E+00 -8.00000E+00  0.00000E+00  0.00000E+00  0.00000E+00  0.00000E+00
   159  2.40251E-04 -8.00000E+00 -8.00000E+00  0.00000E+00  0.00000E+00  0.00000E+00  0.00000E+00
   160  2.46341E-04 -8.00000E+00 -8.00000E+00  0.00000E+00  0.00000E+00  0.00000E+00  0.00000E+00
   161  2.52583E-04 -8.00000E+00 -8.00000E+00  0.00000E+00  0.00000E+00  0.00000E+00  0.00000E+00
   162  2.58980E-04 -8.00000E+00 -8.00000E+00  0.00000E+00  0.00000E+00  0.00000E+00  0.00000E+00
   163  2.65535E-04 -8.00000E+00 -8.00000E+00  0.00000E+00  0.00000E+00  0.00000E+00  0.00000E+00
   164  2.72253E-04 -8.00000E+00 -8.00000E+00  0.00000E+00  0.00000E+00  0.00000E+00  0.00000E+00
   165  2.79138E-04 -8.00000E+00 -8.00000E+00  0.00000E+00  0.00000E+00  0.00000E+00  0.00000E+00
   166  2.86194E-04 -8.00000E+00 -8.00000E+00  0.00000E+00  0.00000E+00  0.00000E+00  0.00000E+00
   167  2.93425E-04 -8.00000E+00 -8.00000E+00  0.00000E+00  0.00000E+00  0.00000E+00  0.00000E+00
   168  3.00836E-04 -8.00000E+00 -8.00000E+00  0.00000E+00  0.00000E+00  0.00000E+00  0.00000E+00
   169  3.08430E-04 -8.00000E+00 -8.00000E+00  0.00000E+00  0.00000E+00  0.00000E+00  0.00000E+00
   170  3.16213E-04 -8.00000E+00 -8.00000E+00  0.00000E+00  0.00000E+00  0.00000E+00  0.00000E+00
   171  3.24189E-04 -8.00000E+00 -8.00000E+00  0.00000E+00  0.00000E+00  0.00000E+00  0.00000E+00
   172  3.32363E-04 -8.00000E+00 -8.00000E+00  0.00000E+00  0.00000E+00  0.00000E+00  0.00000E+00
   173  3.40741E-04 -8.00000E+00 -8.00000E+00  0.00000E+00  0.00000E+00  0.00000E+00  0.00000E+00
   174  3.40741E-04 -8.00000E+00 -8.00000E+00  0.00000E+00  0.00000E+00  0.00000E+00  0.00000E+00
   175  6.81481E-04 -8.00000E+00 -8.00000E+00  0.00000E+00  0.00000E+00  0.00000E+00  0.00000E+00
   176  1.36296E-03 -8.00000E+00 -8.00000E+00  0.00000E+00  0.00000E+00  0.00000E+00  0.00000E+00
   177  2.72592E-03 -8.00000E+00 -8.00000E+00  0.00000E+00  0.00000E+00  0.00000E+00  0.00000E+00
   178  5.45185E-03 -8.00000E+00 -8.00000E+00  0.00000E+00  0.00000E+00  0.00000E+00  0.00000E+00
   179  1.09037E-02 -8.00000E+00 -8.00000E+00  0.00000E+00  0.00000E+00  0.00000E+00  0.00000E+00
   180  2.18074E-02 -8.00000E+00 -8.00000E+00  0.00000E+00  0.00000E+00  0.00000E+00  0.00000E+00
   181  4.36148E-02 -8.00000E+00 -8.00000E+00  0.00000E+00  0.00000E+00  0.00000E+00  0.00000E+00
   182  8.72296E-02 -8.00000E+00 -8.00000E+00  0.00000E+00  0.00000E+00  0.00000E+00  0.00000E+00
   183  1.74459E-01 -8.00000E+00 -8.00000E+00  0.00000E+00  0.00000E+00  0.00000E+00  0.00000E+00
   184  3.48918E-01 -8.00000E+00 -8.00000E+00  0.00000E+00  0.00000E+00  0.00000E+00  0.00000E+00
   185  6.97837E-01 -8.00000E+00 -8.00000E+00  0.00000E+00  0.00000E+00  0.00000E+00  0.00000E+00
   186  1.39567E+00 -8.00000E+00 -8.00000E+00  0.00000E+00  0.00000E+00  0.00000E+00  0.00000E+00
   187  2.79135E+00 -8.00000E+00 -8.00000E+00  0.00000E+00  0.00000E+00  0.00000E+00  0.00000E+00
   188  5.58269E+00 -8.00000E+00 -8.00000E+00  0.00000E+00  0.00000E+00  0.00000E+00  0.00000E+00
   189  1.11654E+01 -8.00000E+00 -8.00000E+00  0.00000E+00  0.00000E+00  0.00000E+00  0.00000E+00
   190  2.23308E+01 -8.00000E+00 -8.00000E+00  0.00000E+00  0.00000E+00  0.00000E+00  0.00000E+00
   191  4.46615E+01 -8.00000E+00 -8.00000E+00  0.00000E+00  0.00000E+00  0.00000E+00  0.00000E+00
   192  8.93231E+01 -8.00000E+00 -8.00000E+00  0.00000E+00  0.00000E+00  0.00000E+00  0.00000E+00
   193  1.78646E+02 -8.00000E+00 -8.00000E+00  0.00000E+00  0.00000E+00  0.00000E+00  0.00000E+00
   194  3.57292E+02 -8.00000E+00 -8.00000E+00  0.00000E+00  0.00000E+00  0.00000E+00  0.00000E+00
   195  7.14585E+02 -8.00000E+00 -8.00000E+00  0.00000E+00  0.00000E+00  0.00000E+00  0.00000E+00
   196  1.42917E+03 -8.00000E+00 -8.00000E+00  0.00000E+00  0.00000E+00  0.00000E+00  0.00000E+00
   197  2.85834E+03 -8.00000E+00 -8.00000E+00  0.00000E+00  0.00000E+00  0.00000E+00  0.00000E+00
   198  5.71668E+03 -8.00000E+00 -8.00000E+00  0.00000E+00  0.00000E+00  0.00000E+00  0.00000E+00
   199  1.14334E+04 -8.00000E+00 -8.00000E+00  0.00000E+00  0.00000E+00  0.00000E+00  0.00000E+00
